-2.484183620836120099e-01
-2.487402512342669070e-01
-2.442338031250983477e-01
-2.274955672910436988e-01
-2.271736781403888017e-01
-2.278174564416985959e-01
-2.278174564416985959e-01
-2.271736781403888017e-01
-2.265298998390790075e-01
-2.271736781403888017e-01
-2.068946616491302848e-01
-2.062508833478204906e-01
-2.059289941971655935e-01
-2.072165507997851819e-01
-2.114011097582988441e-01
-2.114011097582988441e-01
-2.114011097582988441e-01
-1.998131003347225487e-01
-1.972379871294833720e-01
-1.956285413762088865e-01
-1.965942088281735778e-01
-1.965942088281735778e-01
-1.965942088281735778e-01
-1.969160979788284749e-01
-1.927315390203148127e-01
-1.814654187473934144e-01
-1.811435295967385173e-01
-1.821091970487032086e-01
-1.821091970487032086e-01
-1.814654187473934144e-01
-1.817873078980483115e-01
-1.821091970487032086e-01
-1.608645131054800004e-01
-1.615082914067897946e-01
-1.624739588587544858e-01
-1.631177371600642800e-01
-1.673022961185779423e-01
-1.679460744198877364e-01
-1.676241852692328393e-01
-1.557142866950016469e-01
-1.541048409417271614e-01
-1.534610626404173672e-01
-1.528172843391075730e-01
-1.589331782015506178e-01
-1.589331782015506178e-01
-1.595769565028604120e-01
-1.553923975443467498e-01
-1.479889470792841166e-01
-1.467013904766645283e-01
-1.476670579286292195e-01
-1.528172843391075730e-01
-1.531391734897624701e-01
-1.541048409417271614e-01
-1.531391734897624701e-01
-1.476670579286292195e-01
-1.476670579286292195e-01
-1.479889470792841166e-01
-1.499202819832134992e-01
-1.547486192430369556e-01
-1.537829517910722643e-01
-1.544267300923820585e-01
-1.676241852692328393e-01
-1.689117418718524277e-01
-1.705211876251269132e-01
-1.695555201731622219e-01
-1.621520697080995888e-01
-1.611864022561348975e-01
-1.618301805574446917e-01
-1.656928503653034568e-01
-1.714868550770916045e-01
-1.718087442277465016e-01
-1.705211876251269132e-01
-1.637615154613740742e-01
-1.624739588587544858e-01
-1.627958480094093829e-01
-1.624739588587544858e-01
-1.483108362299390137e-01
-1.476670579286292195e-01
-1.470232796273194253e-01
-1.483108362299390137e-01
-1.508859494351781905e-01
-1.508859494351781905e-01
-1.505640602845232934e-01
-1.364009376557078212e-01
-1.357571593543980271e-01
-1.351133810530882329e-01
-1.347914919024333358e-01
-1.357571593543980271e-01
-1.344696027517784387e-01
-1.344696027517784387e-01
-1.370447159570176154e-01
-1.412292749155312777e-01
-1.399417183129116893e-01
-1.399417183129116893e-01
-1.344696027517784387e-01
-1.341477136011235416e-01
-1.344696027517784387e-01
-1.341477136011235416e-01
-1.154781428631395102e-01
-1.158000320137944072e-01
-1.161219211644493043e-01
-1.164438103151042014e-01
-1.158000320137944072e-01
-1.154781428631395102e-01
-1.154781428631395102e-01
-9.455534807057119906e-02
-9.519912637188099325e-02
-9.455534807057119906e-02
-9.519912637188099325e-02
-9.519912637188099325e-02
-9.552101552253589034e-02
-9.391156976926140487e-02
-8.779567590681836009e-02
-7.910466883913613856e-02
-8.039222544175572693e-02
-7.974844714044593275e-02
-8.071411459241062403e-02
-7.974844714044593275e-02
-8.007033629110082984e-02
-7.910466883913613856e-02
-5.045653443085029721e-02
-5.142220188281498849e-02
-5.110031273216009140e-02
-5.077842358150519431e-02
-5.110031273216009140e-02
-5.206598018412478268e-02
-5.174409103346988559e-02
-2.695862643304280937e-02
-2.760240473435260355e-02
-2.792429388500750065e-02
-2.760240473435260355e-02
-2.760240473435260355e-02
-2.760240473435260355e-02
-2.760240473435260355e-02
-1.279550380422733724e-02
7.238405232783406973e-04
1.367618824588134885e-03
1.367618824588134885e-03
8.127290988340973854e-03
6.517845235066488385e-03
6.517845235066488385e-03
7.161623536376282573e-03
5.029476972413249314e-02
5.061665887478739023e-02
5.029476972413249314e-02
5.254799377871677279e-02
5.544499613461084664e-02
5.447932868264615536e-02
5.544499613461084664e-02
2.157457931607495993e-01
2.154239040100947022e-01
2.154239040100947022e-01
2.144582365581300110e-01
2.901021869620308280e-01
2.897802978113759309e-01
2.901021869620308280e-01
1.689507975243031979e-03
-2.455213597277179360e-01
-2.445556922757532448e-01
-2.442338031250983477e-01
-3.092554115573875606e-01
-3.089335224067326635e-01
-3.092554115573875606e-01
-3.082897441054228693e-01
-2.583969257539138198e-01
-2.574312583019491285e-01
-2.580750366032589227e-01
-2.542123667954001576e-01
-2.516372535901609808e-01
-2.513153644395060837e-01
-2.503496969875413924e-01
-1.627958480094093829e-01
-1.627958480094093829e-01
-1.627958480094093829e-01
-1.631177371600642800e-01
-1.602207348041702062e-01
-1.598988456535153091e-01
-1.598988456535153091e-01
-1.351133810530882329e-01
-1.190189235203433782e-01
-1.183751452190335840e-01
-1.190189235203433782e-01
-1.180532560683786869e-01
-1.177313669177237898e-01
-1.174094777670688927e-01
-1.170875886164139956e-01
-1.029244659875985235e-01
-1.032463551382534206e-01
-1.032463551382534206e-01
-1.061433574941474944e-01
-1.090403598500415683e-01
-1.080746923980768770e-01
-1.093622490006964654e-01
-1.032463551382534206e-01
-1.038901334395632148e-01
-1.035682442889083177e-01
-1.029244659875985235e-01
-1.029244659875985235e-01
-1.035682442889083177e-01
-1.035682442889083177e-01
-1.122592513565905392e-01
-1.193408126709982753e-01
-1.190189235203433782e-01
-1.190189235203433782e-01
-1.180532560683786869e-01
-1.180532560683786869e-01
-1.177313669177237898e-01
-1.177313669177237898e-01
-1.090403598500415683e-01
-1.090403598500415683e-01
-1.090403598500415683e-01
-1.090403598500415683e-01
-1.096841381513513625e-01
-1.083965815487317741e-01
-1.090403598500415683e-01
-8.843945420812815428e-02
-8.779567590681836009e-02
-8.876134335878305137e-02
-8.876134335878305137e-02
-8.554245185223408043e-02
-8.586434100288897753e-02
-8.522056270157918334e-02
-7.813900138717144728e-02
-7.459822072996757925e-02
-7.363255327800288796e-02
-7.395444242865778506e-02
-7.492010988062247634e-02
-7.556388818193227053e-02
-7.492010988062247634e-02
-7.717333393520675600e-02
-8.683000845485366881e-02
-8.683000845485366881e-02
-8.715189760550856590e-02
-7.717333393520675600e-02
-7.234499667538329959e-02
-7.363255327800288796e-02
-7.395444242865778506e-02
-6.140076555311679840e-02
-6.043509810115210712e-02
-6.140076555311679840e-02
-6.204454385442659259e-02
-6.719477026490494609e-02
-6.751665941555984318e-02
-6.719477026490494609e-02
-6.140076555311679840e-02
-5.882565234787762165e-02
-5.785998489591293037e-02
-5.914754149853251874e-02
-6.140076555311679840e-02
-6.172265470377169549e-02
-6.043509810115210712e-02
-6.011320895049721003e-02
-5.238786933477967978e-02
-5.367542593739926815e-02
-5.174409103346988559e-02
-5.206598018412478268e-02
-5.110031273216009140e-02
-5.142220188281498849e-02
-5.077842358150519431e-02
-2.856807218631729484e-02
-2.728051558369770646e-02
-2.824618303566239774e-02
-2.792429388500750065e-02
-2.792429388500750065e-02
-2.695862643304280937e-02
-2.760240473435260355e-02
-2.418269286863505840e-04
7.161623536376282573e-03
8.127290988340973854e-03
7.483512687031179667e-03
8.771069289650768042e-03
7.805401837686076760e-03
8.449180138995870948e-03
1.392129570012912154e-02
3.162519898614846170e-02
3.162519898614846170e-02
3.130330983549356461e-02
3.613164709531702101e-02
3.741920369793660939e-02
3.774109284859150648e-02
3.741920369793660939e-02
4.546643246430903673e-02
4.578832161496393383e-02
4.578832161496393383e-02
4.450076501234434545e-02
4.353509756037965417e-02
4.289131925906985998e-02
4.321320840972475708e-02
3.098142068483866751e-02
2.905008578090928495e-02
2.776252917828969657e-02
2.744064002763479948e-02
3.065953153418377042e-02
3.065953153418377042e-02
3.001575323287397623e-02
2.744064002763479948e-02
1.681829805602319539e-02
1.649640890536829829e-02
1.681829805602319539e-02
2.196852446650154889e-02
2.164663531584665179e-02
2.229041361715644598e-02
2.293419191846624017e-02
-8.856052299961447716e-04
-8.856052299961447716e-04
-1.851272681960836053e-03
-1.207494380651041865e-03
-1.529383531305938959e-03
-1.529383531305938959e-03
-8.856052299961447716e-04
-1.150794720160774887e-02
-1.311739295488223433e-02
-1.311739295488223433e-02
-1.311739295488223433e-02
-8.289055695058777928e-03
-8.610944845713675022e-03
-8.932833996368572116e-03
-1.730195191339589655e-02
-3.210885284352116287e-02
-3.275263114483095706e-02
-3.307452029548585415e-02
-3.339640944614075124e-02
-3.210885284352116287e-02
-3.210885284352116287e-02
-3.210885284352116287e-02
-4.788142122561112046e-02
-4.723764292430132627e-02
-4.723764292430132627e-02
-4.852519952692091465e-02
-5.238786933477967978e-02
-5.270975848543457687e-02
-5.238786933477967978e-02
-7.363255327800288796e-02
-7.492010988062247634e-02
-7.492010988062247634e-02
-7.556388818193227053e-02
-7.556388818193227053e-02
-7.492010988062247634e-02
-7.427633157931268215e-02
-6.944799431948922575e-02
-5.657242829329334199e-02
-5.721620659460313618e-02
-5.625053914263844490e-02
-5.592864999198354781e-02
-5.657242829329334199e-02
-5.592864999198354781e-02
-5.560676084132865071e-02
-4.498441886971704662e-02
-4.369686226709745824e-02
-4.466252971906214952e-02
-4.595008632168173790e-02
-4.916897782823070884e-02
-4.949086697888560593e-02
-4.916897782823070884e-02
-4.112174906185828149e-02
-4.112174906185828149e-02
-4.015608160989359021e-02
-4.047797076054848731e-02
-4.916897782823070884e-02
-4.884708867757581174e-02
-4.916897782823070884e-02
-4.595008632168173790e-02
-4.079985991120338440e-02
-4.079985991120338440e-02
-4.047797076054848731e-02
-4.176552736316807568e-02
-4.047797076054848731e-02
-4.176552736316807568e-02
-4.015608160989359021e-02
-2.599295898107811809e-02
-2.502729152911342680e-02
-2.599295898107811809e-02
-2.502729152911342680e-02
-2.631484813173301518e-02
-2.534918067976832390e-02
-2.599295898107811809e-02
1.045729673933237791e-03
1.045729673933237791e-03
4.019513726234436035e-04
-2.418269286863505840e-04
4.019513726234436035e-04
-5.637160793412476778e-04
8.006222196854650974e-05
8.449180138995870948e-03
1.810585465864278376e-02
1.778396550798788667e-02
1.778396550798788667e-02
2.325608106912113726e-02
2.325608106912113726e-02
2.229041361715644598e-02
2.229041361715644598e-02
4.675398906692862511e-02
4.643209991627372801e-02
4.546643246430903673e-02
4.836343482020311058e-02
5.126043717609718442e-02
5.093854802544228733e-02
5.093854802544228733e-02
8.892146780272014439e-02
8.763391120010055602e-02
8.731202204944565892e-02
8.827768950141035020e-02
9.407169421319849789e-02
9.374980506254360080e-02
9.310602676123380661e-02
8.634635459748096764e-02
7.829912583110854030e-02
7.958668243372812867e-02
7.829912583110854030e-02
8.473690884420648217e-02
8.409313054289668798e-02
8.505879799486137927e-02
8.473690884420648217e-02
1.088785951433237642e-01
1.075910385407041758e-01
1.088785951433237642e-01
1.085567059926688671e-01
1.095223734446335584e-01
1.092004842939786613e-01
1.082348168420139700e-01
8.055234988569281995e-02
8.055234988569281995e-02
8.087423903634771705e-02
7.926479328307323158e-02
7.508023432455956936e-02
7.508023432455956936e-02
7.508023432455956936e-02
4.643209991627372801e-02
2.325608106912113726e-02
2.196852446650154889e-02
2.325608106912113726e-02
2.196852446650154889e-02
2.196852446650154889e-02
2.293419191846624017e-02
2.196852446650154889e-02
-4.369686226709745824e-02
-4.401875141775235534e-02
-4.305308396578766406e-02
-4.595008632168173790e-02
-4.884708867757581174e-02
-4.981275612954050303e-02
-4.820331037626601756e-02
-8.715189760550856590e-02
-8.715189760550856590e-02
-8.650811930419877172e-02
-8.811756505747325718e-02
-9.294590231729671359e-02
-9.326779146795161068e-02
-9.294590231729671359e-02
-2.300706804962828755e-01
-3.208434209809638560e-01
-3.198777535289991647e-01
-3.198777535289991647e-01
-3.633327888674102724e-01
-3.630108997167553753e-01
-3.633327888674102724e-01
-3.588263407582417130e-01
-3.024957393936347216e-01
-3.024957393936347216e-01
-3.015300719416700304e-01
-2.986330695857759565e-01
-2.960579563805367798e-01
-2.960579563805367798e-01
-2.957360672298818827e-01
-2.229891191818751395e-01
-2.229891191818751395e-01
-2.236328974831849337e-01
-2.226672300312202424e-01
-2.226672300312202424e-01
-2.226672300312202424e-01
-2.233110083325300366e-01
-1.415511640661861748e-01
-9.745235042646527290e-02
-9.841801787842996418e-02
-9.745235042646527290e-02
-9.262401316664181650e-02
-9.198023486533202231e-02
-9.294590231729671359e-02
-7.041366177145391703e-02
9.761247487040236592e-02
9.729058571974746883e-02
9.632491826778277755e-02
9.568113996647298336e-02
9.568113996647298336e-02
9.600302911712788045e-02
9.471547251450829208e-02
1.452520691673271358e-01
1.442864017153624445e-01
1.436426234140526503e-01
1.455739583179820329e-01
1.475052932219114155e-01
1.471834040712565184e-01
1.471834040712565184e-01
1.111318191979080439e-01
9.439358336385339499e-02
9.535925081581808627e-02
9.471547251450829208e-02
8.924335695337504148e-02
8.859957865206524730e-02
8.988713525468483567e-02
7.379267772193998098e-02
-6.679609941784292459e-03
-6.679609941784292459e-03
-6.679609941784292459e-03
-1.150794720160774887e-02
-1.279550380422733724e-02
-1.182983635226264596e-02
-1.182983635226264596e-02
-6.494154621032066643e-02
-6.397587875835597515e-02
-6.526343536097556353e-02
-6.494154621032066643e-02
-7.009177262079901993e-02
-6.976988347014412284e-02
-6.944799431948922575e-02
-8.264544949634000659e-02
-8.715189760550856590e-02
-8.618623015354387462e-02
-8.779567590681836009e-02
-8.554245185223408043e-02
-8.618623015354387462e-02
-8.522056270157918334e-02
-8.908323250943794847e-02
-9.745235042646527290e-02
-9.841801787842996418e-02
-9.841801787842996418e-02
-9.294590231729671359e-02
-9.230212401598691940e-02
-9.165834571467712522e-02
-9.230212401598691940e-02
-1.360790485050529242e-01
-1.360790485050529242e-01
-1.351133810530882329e-01
-1.370447159570176154e-01
-1.421949423674959689e-01
-1.421949423674959689e-01
-1.409073857648763806e-01
-1.782465272408444434e-01
-1.882250909111462533e-01
-1.875813126098364592e-01
-1.875813126098364592e-01
-2.023882135399617255e-01
-2.023882135399617255e-01
-2.027101026906166226e-01
-1.869375343085266650e-01
-1.421949423674959689e-01
-1.415511640661861748e-01
-1.415511640661861748e-01
-1.315726003958843648e-01
-1.293193763413000852e-01
-1.299631546426098794e-01
-1.296412654919549823e-01
1.484709606738761067e-01
1.481490715232212096e-01
1.471834040712565184e-01
1.497585172764956951e-01
1.561963002895936370e-01
1.558744111389387399e-01
1.552306328376289457e-01
2.772266209358349442e-01
3.010464180842973292e-01
3.007245289336424321e-01
3.010464180842973292e-01
3.065185336454305798e-01
3.055528661934658885e-01
3.055528661934658885e-01
3.193940996716264635e-01
3.522267930384259671e-01
3.525486821890808642e-01
3.525486821890808642e-01
3.480422340799123049e-01
3.493297906825318933e-01
3.483641232305672020e-01
3.490079015318769962e-01
1.433207342633977532e-01
1.433207342633977532e-01
1.436426234140526503e-01
3.873127104598097503e-01
8.884941180294845253e-01
8.865627831255551428e-01
8.872065614268649369e-01
1.664967531105503440e-01
7.025189706473611295e-02
7.121756451670080423e-02
7.121756451670080423e-02
5.673255273723043501e-02
5.737633103854022920e-02
5.673255273723043501e-02
3.313039982458576560e-01
8.392450779792852700e-01
8.389231888286303729e-01
8.386012996779754758e-01
3.168189864663872868e-01
2.611321634030900896e-01
2.620978308550547808e-01
2.620978308550547808e-01
-5.722388476424384862e-01
-5.715950693411286920e-01
-5.686980669852346182e-01
-6.311445622122846544e-01
-7.360804253257811069e-01
-7.357585361751262099e-01
-7.347928687231615186e-01
-5.796422981075011194e-01
-5.667667320813052356e-01
-5.670886212319601327e-01
-5.664448429306503385e-01
-5.567881684110034257e-01
-5.571100575616583228e-01
-5.571100575616583228e-01
-4.695562085835263133e-01
-3.369378785137087107e-01
-3.372597676643636078e-01
-3.382254351163282990e-01
-3.292125388979911804e-01
-3.292125388979911804e-01
-3.292125388979911804e-01
-3.288906497473362833e-01
-2.217015625792555511e-01
-2.210577842779457569e-01
-2.210577842779457569e-01
-2.181607819220516831e-01
-2.159075578674674034e-01
-2.159075578674674034e-01
-2.159075578674674034e-01
-1.727744116797111928e-01
-1.727744116797111928e-01
-1.721306333784013987e-01
-1.721306333784013987e-01
-1.721306333784013987e-01
-1.727744116797111928e-01
-1.721306333784013987e-01
-1.586112890508957207e-01
-1.409073857648763806e-01
-1.418730532168410718e-01
-1.405854966142214835e-01
-1.409073857648763806e-01
-1.418730532168410718e-01
-1.412292749155312777e-01
-1.415511640661861748e-01
-1.148343645618297160e-01
-1.151562537124846131e-01
-1.148343645618297160e-01
-1.158000320137944072e-01
-1.161219211644493043e-01
-1.158000320137944072e-01
-1.154781428631395102e-01
-1.277099305880255997e-01
-1.277099305880255997e-01
-1.289974871906451881e-01
-1.289974871906451881e-01
-1.238472607801668346e-01
-1.225597041775472462e-01
-1.235253716295119375e-01
-1.373666051076725125e-01
-1.521735060377977788e-01
-1.528172843391075730e-01
-1.531391734897624701e-01
-1.586112890508957207e-01
-1.582893999002408236e-01
-1.586112890508957207e-01
-1.589331782015506178e-01
-1.817873078980483115e-01
-1.821091970487032086e-01
-1.814654187473934144e-01
-1.808216404460836202e-01
-1.814654187473934144e-01
-1.814654187473934144e-01
-1.808216404460836202e-01
-1.615082914067897946e-01
-1.602207348041702062e-01
-1.598988456535153091e-01
-1.595769565028604120e-01
-1.666585178172681481e-01
-1.653709612146485597e-01
-1.666585178172681481e-01
-1.576456215989310294e-01
-1.508859494351781905e-01
-1.499202819832134992e-01
-1.512078385858330876e-01
-1.505640602845232934e-01
-1.505640602845232934e-01
-1.492765036819037050e-01
-1.508859494351781905e-01
-1.434824989701155573e-01
-1.441262772714253515e-01
-1.438043881207704544e-01
-1.444481664220802486e-01
-1.434824989701155573e-01
-1.438043881207704544e-01
-1.444481664220802486e-01
-1.550705083936918527e-01
-1.557142866950016469e-01
-1.563580649963114411e-01
-1.560361758456565440e-01
-1.560361758456565440e-01
-1.560361758456565440e-01
-1.550705083936918527e-01
-1.747057465836405754e-01
-1.885469800618011504e-01
-1.872594234591815621e-01
-1.875813126098364592e-01
-1.940190956229344010e-01
-1.940190956229344010e-01
-1.933753173216246068e-01
-1.969160979788284749e-01
-2.664441545202862471e-01
-2.661222653696313500e-01
-2.664441545202862471e-01
-2.670879328215960413e-01
-2.658003762189764529e-01
-2.664441545202862471e-01
-2.641909304657019675e-01
-3.153713054198306054e-01
-3.153713054198306054e-01
-3.150494162691757083e-01
-3.150494162691757083e-01
-3.150494162691757083e-01
-3.156931945704855025e-01
-3.153713054198306054e-01
-3.263155365420971066e-01
-3.333970978565048426e-01
-3.337189870071597397e-01
-3.337189870071597397e-01
-3.337189870071597397e-01
-3.340408761578146368e-01
-3.340408761578146368e-01
-3.353284327604342252e-01
-3.462726638827007264e-01
-3.469164421840105206e-01
-3.465945530333556235e-01
-3.430537723761517555e-01
-3.408005483215674758e-01
-3.411224374722223729e-01
-3.427318832254968584e-01
-3.501353336905594915e-01
-3.507791119918692857e-01
-3.504572228412143886e-01
-3.504572228412143886e-01
-3.504572228412143886e-01
-3.504572228412143886e-01
-3.507791119918692857e-01
-3.781396897975355387e-01
-3.919809232756961137e-01
-3.913371449743863195e-01
-3.906933666730765253e-01
-3.916590341250412166e-01
-3.913371449743863195e-01
-3.923028124263510108e-01
-3.945560364809352905e-01
-4.135474963695742190e-01
-4.138693855202291161e-01
-4.138693855202291161e-01
-4.138693855202291161e-01
-4.138693855202291161e-01
-4.129037180682644248e-01
-4.135474963695742190e-01
-4.338265128608327359e-01
-4.335046237101778388e-01
-4.335046237101778388e-01
-4.331827345595229417e-01
-4.328608454088680446e-01
-4.331827345595229417e-01
-4.331827345595229417e-01
-4.441269656817894429e-01
-4.473458571883384138e-01
-4.470239680376835167e-01
-4.473458571883384138e-01
-4.473458571883384138e-01
-4.463801897363737226e-01
-4.463801897363737226e-01
-4.476677463389933109e-01
-4.550711968040559441e-01
-4.547493076534010470e-01
-4.553930859547108412e-01
-4.505647486948873848e-01
-4.492771920922677964e-01
-4.499209703935775906e-01
-4.499209703935775906e-01
-4.608652015158440918e-01
-4.611870906664989889e-01
-4.608652015158440918e-01
-4.608652015158440918e-01
-4.644059821730479598e-01
-4.634403147210832685e-01
-4.640840930223930627e-01
-4.573244208586402237e-01
-4.553930859547108412e-01
-4.553930859547108412e-01
-4.557149751053657383e-01
-4.495990812429226935e-01
-4.499209703935775906e-01
-4.495990812429226935e-01
-4.434831873804796487e-01
-4.203071685333270580e-01
-4.199852793826721609e-01
-4.196633902320172638e-01
-4.196633902320172638e-01
-4.180539444787427783e-01
-4.186977227800525725e-01
-4.180539444787427783e-01
-3.832899162080138922e-01
-3.826461379067040980e-01
-3.839336945093236864e-01
-3.839336945093236864e-01
-3.845774728106334805e-01
-3.839336945093236864e-01
-3.848993619612883776e-01
-4.006719303433783352e-01
-4.048564893018919975e-01
-4.045346001512371004e-01
-4.051783784525468946e-01
-4.042127110005822033e-01
-4.048564893018919975e-01
-4.055002676032017916e-01
-4.151569421228487045e-01
-4.376891826686915010e-01
-4.383329609700012952e-01
-4.383329609700012952e-01
-4.383329609700012952e-01
-4.386548501206561923e-01
-4.380110718193463981e-01
-4.386548501206561923e-01
-4.975605646905023605e-01
-4.978824538411572576e-01
-4.982043429918121547e-01
-4.985262321424670517e-01
-5.033545694022905082e-01
-5.027107911009807140e-01
-5.030326802516356111e-01
-5.361872627690900117e-01
-5.410156000289134681e-01
-5.416593783302232623e-01
-5.413374891795683652e-01
-5.403718217276036739e-01
-5.406937108782585710e-01
-5.403718217276036739e-01
-5.461658264393918216e-01
-5.606508382188621908e-01
-5.609727273695170879e-01
-5.612946165201719850e-01
-5.555006118083838373e-01
-5.538911660551093519e-01
-5.535692769044544548e-01
-5.535692769044544548e-01
-5.738482933957129717e-01
-5.741701825463678688e-01
-5.744920716970227659e-01
-5.744920716970227659e-01
-5.732045150944031775e-01
-5.735264042450580746e-01
-5.735264042450580746e-01
-6.185908853367436677e-01
-6.237411117472220212e-01
-6.230973334459122270e-01
-6.234192225965671241e-01
-6.263162249524611980e-01
-6.259943358018063009e-01
-6.253505575004965067e-01
-6.594708074699155986e-01
-7.145138522319030017e-01
-7.141919630812481046e-01
-7.145138522319030017e-01
-7.193421894917264581e-01
-7.193421894917264581e-01
-7.196640786423813552e-01
-7.196640786423813552e-01
-8.162308238388504833e-01
-8.162308238388504833e-01
-8.149432672362308949e-01
-8.162308238388504833e-01
-8.155870455375406891e-01
-8.159089346881955862e-01
-8.162308238388504833e-01
-8.857588803803082556e-01
-8.886558827362023294e-01
-8.889777718868572265e-01
-8.883339935855474323e-01
-8.941279982973355800e-01
-8.941279982973355800e-01
-8.938061091466806829e-01
-9.089348992274608463e-01
-9.288920265680644661e-01
-9.288920265680644661e-01
-9.292139157187193632e-01
-9.321109180746134371e-01
-9.321109180746134371e-01
-9.321109180746134371e-01
-9.317890289239585400e-01
-9.240636893082410097e-01
-9.243855784588959068e-01
-9.240636893082410097e-01
-9.266388025134801865e-01
-9.308233614719938487e-01
-9.305014723213389516e-01
-9.311452506226487458e-01
-9.163383496925234795e-01
-9.166602388431783766e-01
-9.169821279938332736e-01
-9.169821279938332736e-01
-9.256731350615154952e-01
-9.266388025134801865e-01
-9.263169133628252894e-01
-9.227761327056214213e-01
-9.176259062951430678e-01
-9.176259062951430678e-01
-9.182696845964528620e-01
-9.185915737471077591e-01
-9.182696845964528620e-01
-9.182696845964528620e-01
-9.192353520484175533e-01
-9.076473426248412579e-01
-9.070035643235314637e-01
-9.066816751728765666e-01
-9.092567883781157434e-01
-9.121537907340098172e-01
-9.124756798846647143e-01
-9.121537907340098172e-01
-9.214885761030018330e-01
-9.202010195003822446e-01
-9.214885761030018330e-01
-9.208447978016920388e-01
-9.202010195003822446e-01
-9.202010195003822446e-01
-9.205229086510371417e-01
-9.111881232820451260e-01
-9.031408945156726986e-01
-9.028190053650178015e-01
-9.021752270637080073e-01
-9.034627836663275957e-01
-9.031408945156726986e-01
-9.031408945156726986e-01
-9.028190053650178015e-01
-8.822180997231043875e-01
-8.815743214217945933e-01
-8.818962105724494904e-01
-8.851151020789984614e-01
-8.880121044348925352e-01
-8.873683261335827410e-01
-8.880121044348925352e-01
-8.587201917252968997e-01
-8.587201917252968997e-01
-8.583983025746420026e-01
-8.580764134239871055e-01
-8.612953049305360764e-01
-8.619390832318458706e-01
-8.609734157798811793e-01
-8.538918544654734433e-01
-8.464884040004108101e-01
-8.484197389043401927e-01
-8.474540714523755014e-01
-8.468102931510657072e-01
-8.474540714523755014e-01
-8.468102931510657072e-01
-8.480978497536852956e-01
-8.242780526052229106e-01
-8.242780526052229106e-01
-8.239561634545680135e-01
-8.239561634545680135e-01
-8.245999417558778077e-01
-8.255656092078424990e-01
-8.245999417558778077e-01
-7.946642507449723780e-01
-7.953080290462821722e-01
-7.949861398956272751e-01
-7.956299181969370693e-01
-7.949861398956272751e-01
-7.962736964982468635e-01
-7.953080290462821722e-01
-7.653723380353767425e-01
-7.457370998454280198e-01
-7.463808781467378139e-01
-7.463808781467378139e-01
-7.463808781467378139e-01
-7.463808781467378139e-01
-7.476684347493574023e-01
-7.447714323934633285e-01
-7.103292932733893394e-01
-7.100074041227344424e-01
-7.109730715746991336e-01
-7.064666234655305743e-01
-7.058228451642207801e-01
-7.061447343148756772e-01
-7.051790668629109859e-01
-6.379042343760374933e-01
-6.391917909786570817e-01
-6.395136801293119788e-01
-6.385480126773472875e-01
-6.327540079655591398e-01
-6.330758971162140369e-01
-6.337196754175238311e-01
-5.748139608476776630e-01
-5.439126023848075420e-01
-5.439126023848075420e-01
-5.439126023848075420e-01
-5.435907132341526449e-01
-5.439126023848075420e-01
-5.439126023848075420e-01
-5.310370363586116582e-01
-4.289981756010092795e-01
-4.293200647516641766e-01
-4.293200647516641766e-01
-4.293200647516641766e-01
-4.299638430529739708e-01
-4.293200647516641766e-01
-4.289981756010092795e-01
-2.976674021338112652e-01
-2.979892912844661623e-01
-2.970236238325014710e-01
-2.979892912844661623e-01
-2.950922889285720885e-01
-2.957360672298818827e-01
-2.950922889285720885e-01
-2.159075578674674034e-01
-1.804997512954287231e-01
-1.804997512954287231e-01
-1.808216404460836202e-01
-1.808216404460836202e-01
-1.808216404460836202e-01
-1.804997512954287231e-01
-1.721306333784013987e-01
-1.222378150268923491e-01
-1.222378150268923491e-01
-1.232034824788570404e-01
-1.232034824788570404e-01
-1.225597041775472462e-01
-1.228815933282021433e-01
-1.232034824788570404e-01
-1.048558008915279061e-01
-1.051776900421828032e-01
-1.045339117408730090e-01
-1.051776900421828032e-01
-1.054995791928377002e-01
-1.058214683434925973e-01
-1.054995791928377002e-01
-8.554245185223408043e-02
-7.878277968848124146e-02
-7.878277968848124146e-02
-7.878277968848124146e-02
-9.069267826271243393e-02
-9.069267826271243393e-02
-9.069267826271243393e-02
-8.811756505747325718e-02
-7.588577733258716762e-02
-7.588577733258716762e-02
-7.717333393520675600e-02
-7.717333393520675600e-02
-7.588577733258716762e-02
-7.685144478455185890e-02
-7.685144478455185890e-02
-6.172265470377169549e-02
-6.301021130639128387e-02
-6.204454385442659259e-02
-6.236643300508148968e-02
-6.172265470377169549e-02
-6.236643300508148968e-02
-6.268832215573638678e-02
-4.659386462299153209e-02
-4.144363821251317859e-02
-4.176552736316807568e-02
-4.305308396578766406e-02
-4.852519952692091465e-02
-4.820331037626601756e-02
-4.852519952692091465e-02
-4.240930566447786987e-02
-2.373973492649383843e-02
-2.309595662518404424e-02
-2.373973492649383843e-02
-2.373973492649383843e-02
-2.406162407714873552e-02
-2.406162407714873552e-02
-2.470540237845852971e-02
-6.357720791129395366e-03
-6.035831640474498272e-03
-7.001499092439189553e-03
-6.357720791129395366e-03
-7.323388243094086647e-03
-7.001499092439189553e-03
-6.357720791129395366e-03
5.552177783101797104e-03
8.127290988340973854e-03
8.771069289650768042e-03
8.771069289650768042e-03
8.449180138995870948e-03
8.449180138995870948e-03
9.092958440305665135e-03
1.327751739881932735e-02
2.357797021977603436e-02
2.389985937043093145e-02
2.454363767174072564e-02
2.357797021977603436e-02
2.422174852108582854e-02
2.422174852108582854e-02
2.486552682239562273e-02
5.383555038133636117e-02
5.447932868264615536e-02
5.512310698395594954e-02
5.447932868264615536e-02
5.415743953199125826e-02
5.447932868264615536e-02
5.480121783330105245e-02
6.671111640753224492e-02
6.928622961277142167e-02
6.896434046211652458e-02
6.896434046211652458e-02
6.896434046211652458e-02
6.993000791408121586e-02
6.928622961277142167e-02
7.443645602324977517e-02
8.377124139224179089e-02
8.441501969355158508e-02
8.377124139224179089e-02
8.956524610402993858e-02
9.053091355599462986e-02
9.053091355599462986e-02
8.956524610402993858e-02
1.104880408965982497e-01
1.108099300472531468e-01
1.101661517459433526e-01
1.111318191979080439e-01
1.104880408965982497e-01
1.108099300472531468e-01
1.111318191979080439e-01
1.236854960734490305e-01
1.259387201280333102e-01
1.252949418267235160e-01
1.243292743747588247e-01
1.249730526760686189e-01
1.252949418267235160e-01
1.259387201280333102e-01
1.269043875799980015e-01
1.278700550319626927e-01
1.281919441826175898e-01
1.285138333332724869e-01
1.256168309773784131e-01
1.256168309773784131e-01
1.252949418267235160e-01
1.252949418267235160e-01
1.285138333332724869e-01
1.281919441826175898e-01
1.275481658813077956e-01
1.265824984293431044e-01
1.243292743747588247e-01
1.246511635254137218e-01
1.240073852241039276e-01
1.381705078529193997e-01
1.384923970035742968e-01
1.388142861542291939e-01
1.375267295516096056e-01
1.384923970035742968e-01
1.372048404009547085e-01
1.378486187022645026e-01
1.478271823725663126e-01
1.607027483987621963e-01
1.600589700974524021e-01
1.607027483987621963e-01
1.610246375494170934e-01
1.603808592481072992e-01
1.600589700974524021e-01
1.600589700974524021e-01
1.896727719577029347e-01
1.899946611083578318e-01
1.887071045057382435e-01
1.870976587524637580e-01
1.835568780952598900e-01
1.838787672459147871e-01
1.842006563965696841e-01
2.286213591869454831e-01
2.289432483376003802e-01
2.292651374882552773e-01
2.282994700362905860e-01
2.292651374882552773e-01
2.295870266389101744e-01
2.292651374882552773e-01
2.495441539795137942e-01
2.698231704707723111e-01
2.698231704707723111e-01
2.707888379227370024e-01
2.711107270733918995e-01
2.714326162240467966e-01
2.714326162240467966e-01
2.707888379227370024e-01
3.010464180842973292e-01
3.007245289336424321e-01
2.997588614816777408e-01
3.010464180842973292e-01
3.004026397829875350e-01
3.004026397829875350e-01
3.010464180842973292e-01
3.187503213703166693e-01
3.187503213703166693e-01
3.184284322196617723e-01
3.184284322196617723e-01
3.184284322196617723e-01
3.181065430690068752e-01
3.184284322196617723e-01
3.267975501366890967e-01
3.342010006017517298e-01
3.332353331497870386e-01
3.332353331497870386e-01
3.396731161628849804e-01
3.387074487109202892e-01
3.396731161628849804e-01
3.390293378615751863e-01
3.245443260821048170e-01
3.242224369314499199e-01
3.255099935340695083e-01
3.216473237262107432e-01
3.193940996716264635e-01
3.193940996716264635e-01
3.193940996716264635e-01
3.396731161628849804e-01
3.396731161628849804e-01
3.393512270122300833e-01
3.396731161628849804e-01
3.406387836148496717e-01
3.393512270122300833e-01
3.406387836148496717e-01
3.480422340799123049e-01
3.548019062436651438e-01
3.551237953943200409e-01
3.548019062436651438e-01
3.544800170930102468e-01
3.538362387917004526e-01
3.538362387917004526e-01
3.554456845449749380e-01
3.676774722698610276e-01
3.679993614205159247e-01
3.676774722698610276e-01
3.721839203790295869e-01
3.731495878309942782e-01
3.728276986803393811e-01
3.731495878309942782e-01
3.956818283768370748e-01
3.960037175274919719e-01
3.960037175274919719e-01
3.956818283768370748e-01
3.960037175274919719e-01
3.963256066781468689e-01
3.966474958288017660e-01
4.043728354445192963e-01
4.104887293069623411e-01
4.111325076082721353e-01
4.095230618549976498e-01
4.034071679925546050e-01
4.043728354445192963e-01
4.043728354445192963e-01
4.063041703484486789e-01
4.307677457982208580e-01
4.304458566475659609e-01
4.314115240995306522e-01
4.314115240995306522e-01
4.310896349488757551e-01
4.310896349488757551e-01
4.320553024008404464e-01
4.842013448069337755e-01
4.848451231082435697e-01
4.851670122588984668e-01
4.864545688615180552e-01
4.912829061213415116e-01
4.916047952719964087e-01
4.916047952719964087e-01
5.308752716518938541e-01
5.498667315405327827e-01
5.501886206911876798e-01
5.495448423898778856e-01
5.530856230470817536e-01
5.537294013483915478e-01
5.534075121977366507e-01
5.669268565252423286e-01
6.531931489007547498e-01
6.525493705994449556e-01
6.519055922981351614e-01
6.541588163527194411e-01
6.551244838046841323e-01
6.551244838046841323e-01
6.544807055033743382e-01
8.505111982522066683e-01
8.501893091015517712e-01
8.505111982522066683e-01
8.495455308002419770e-01
8.492236416495870799e-01
8.495455308002419770e-01
8.501893091015517712e-01
9.441809410927817225e-01
9.818419717194046825e-01
9.818419717194046825e-01
9.824857500207144767e-01
9.280864835600368679e-01
9.287302618613466620e-01
9.287302618613466620e-01
7.803393634094391018e-01
1.117755974992178380e-01
1.120974866498727351e-01
1.124193758005276322e-01
9.117469185730442405e-02
8.377124139224179089e-02
8.538068714551627636e-02
8.505879799486137927e-02
2.028702271345537156e-01
2.015826705319341272e-01
2.025483379838988185e-01
1.854882129991892725e-01
1.230417177721392363e-01
1.233636069227941334e-01
1.236854960734490305e-01
3.010464180842973292e-01
3.576989085995592177e-01
3.580207977502141148e-01
3.573770194489043206e-01
1.520117413310799748e-01
1.529774087830446661e-01
1.526555196323897690e-01
2.025483379838988185e-01
3.718620312283746898e-01
3.715401420777197927e-01
3.699306963244453073e-01
5.534075121977366507e-01
6.033003305492457002e-01
6.029784413985908031e-01
6.026565522479359061e-01
6.090943352610338479e-01
6.078067786584142596e-01
6.081286678090691566e-01
6.161758965754415840e-01
6.370986913680098951e-01
6.361330239160452038e-01
6.370986913680098951e-01
6.277639059990178794e-01
6.255106819444335997e-01
6.255106819444335997e-01
6.258325710950884968e-01
5.151027032698038965e-01
5.144589249684941024e-01
5.154245924204587936e-01
5.138151466671843082e-01
5.073773636540863663e-01
5.076992528047412634e-01
5.080211419553961605e-01
4.017977222392801195e-01
3.795873708440922201e-01
3.799092599947471172e-01
3.805530382960569113e-01
3.802311491454020143e-01
3.805530382960569113e-01
3.805530382960569113e-01
3.586645760515239090e-01
3.052309770428109914e-01
3.061966444947756827e-01
3.049090878921560943e-01
3.055528661934658885e-01
3.055528661934658885e-01
3.061966444947756827e-01
3.052309770428109914e-01
2.769047317851800472e-01
2.765828426345251501e-01
2.775485100864898413e-01
2.749733968812506646e-01
2.707888379227370024e-01
2.720763945253565907e-01
2.720763945253565907e-01
2.537287129380274564e-01
2.517973780340980738e-01
2.511535997327882797e-01
2.517973780340980738e-01
2.579132718965411186e-01
2.572694935952313244e-01
2.579132718965411186e-01
2.527630454860627651e-01
2.427844818157609552e-01
2.431063709664158523e-01
2.431063709664158523e-01
2.427844818157609552e-01
2.424625926651060581e-01
2.437501492677256465e-01
2.443939275690354407e-01
2.353810313506983221e-01
2.353810313506983221e-01
2.344153638987336308e-01
2.353810313506983221e-01
2.344153638987336308e-01
2.344153638987336308e-01
2.347372530493885279e-01
2.215397978725377470e-01
2.199303521192632616e-01
2.199303521192632616e-01
2.202522412699181587e-01
2.231492436258122325e-01
2.225054653245024383e-01
2.221835761738475412e-01
2.196084629686083645e-01
2.138144582568202168e-01
2.138144582568202168e-01
2.134925691061653197e-01
2.131706799555104226e-01
2.131706799555104226e-01
2.128487908048555255e-01
2.131706799555104226e-01
2.183209063659887761e-01
2.186427955166436732e-01
2.186427955166436732e-01
2.192865738179534674e-01
2.202522412699181587e-01
2.205741304205730557e-01
2.205741304205730557e-01
2.128487908048555255e-01
2.118831233528908342e-01
2.118831233528908342e-01
2.118831233528908342e-01
2.173552389140240848e-01
2.179990172153338790e-01
2.179990172153338790e-01
2.109174559009261429e-01
2.035140054358635098e-01
2.025483379838988185e-01
2.035140054358635098e-01
2.073766752437222749e-01
2.070547860930673778e-01
2.070547860930673778e-01
2.070547860930673778e-01
2.125269016542006284e-01
2.131706799555104226e-01
2.131706799555104226e-01
2.105955667502712458e-01
2.073766752437222749e-01
2.073766752437222749e-01
2.080204535450320691e-01
2.138144582568202168e-01
2.147801257087849081e-01
2.147801257087849081e-01
2.138144582568202168e-01
2.144582365581300110e-01
2.151020148594398052e-01
2.147801257087849081e-01
2.109174559009261429e-01
2.060891186411026865e-01
2.067328969424124807e-01
2.067328969424124807e-01
2.067328969424124807e-01
2.070547860930673778e-01
2.073766752437222749e-01
2.073766752437222749e-01
1.922478851629421115e-01
1.922478851629421115e-01
1.919259960122872144e-01
1.928916634642519057e-01
1.922478851629421115e-01
1.928916634642519057e-01
1.932135526149068028e-01
1.813036540406756103e-01
1.809817648900207132e-01
1.806598757393658161e-01
1.806598757393658161e-01
1.813036540406756103e-01
1.813036540406756103e-01
1.809817648900207132e-01
1.732564252743031830e-01
1.664967531105503440e-01
1.661748639598954469e-01
1.664967531105503440e-01
1.732564252743031830e-01
1.729345361236482859e-01
1.729345361236482859e-01
1.729345361236482859e-01
1.629559724533464760e-01
1.632778616040013731e-01
1.635997507546562701e-01
1.684280880144797266e-01
1.726126469729933888e-01
1.726126469729933888e-01
1.716469795210286975e-01
1.957886658201459795e-01
1.957886658201459795e-01
1.957886658201459795e-01
1.957886658201459795e-01
1.948229983681812882e-01
1.951448875188361853e-01
1.951448875188361853e-01
2.115612342022359371e-01
2.231492436258122325e-01
2.237930219271220267e-01
2.231492436258122325e-01
2.231492436258122325e-01
2.225054653245024383e-01
2.228273544751573354e-01
2.231492436258122325e-01
2.489003756782040000e-01
2.485784865275491029e-01
2.489003756782040000e-01
2.489003756782040000e-01
2.482565973768942058e-01
2.479347082262393087e-01
2.495441539795137942e-01
2.517973780340980738e-01
2.517973780340980738e-01
2.511535997327882797e-01
2.517973780340980738e-01
2.511535997327882797e-01
2.511535997327882797e-01
2.517973780340980738e-01
2.595227176498156041e-01
2.637072766083292663e-01
2.640291657589841634e-01
2.640291657589841634e-01
2.582351610471960157e-01
2.585570501978509128e-01
2.575913827458862215e-01
2.582351610471960157e-01
2.527630454860627651e-01
2.527630454860627651e-01
2.534068237873725593e-01
2.572694935952313244e-01
2.588789393485058099e-01
2.595227176498156041e-01
2.598446068004705012e-01
2.508317105821333826e-01
2.511535997327882797e-01
2.508317105821333826e-01
2.521192671847529709e-01
2.546943803899921477e-01
2.546943803899921477e-01
2.550162695406470448e-01
2.353810313506983221e-01
2.260462459817063063e-01
2.257243568310514092e-01
2.254024676803965122e-01
2.260462459817063063e-01
2.257243568310514092e-01
2.257243568310514092e-01
2.221835761738475412e-01
2.019045596825890243e-01
2.012607813812792301e-01
2.019045596825890243e-01
2.015826705319341272e-01
2.025483379838988185e-01
2.022264488332439214e-01
2.028702271345537156e-01
1.491147389751859009e-01
1.491147389751859009e-01
1.487928498245310038e-01
1.500804064271505922e-01
1.500804064271505922e-01
1.497585172764956951e-01
1.494366281258407980e-01
1.294795007852371782e-01
1.207884937175549567e-01
1.217541611695196480e-01
1.220760503201745450e-01
1.153163781564217061e-01
1.156382673070766032e-01
1.162820456083863974e-01
1.120974866498727351e-01
9.214035930926911533e-02
9.246224845992401242e-02
9.181847015861421824e-02
9.181847015861421824e-02
9.278413761057890952e-02
9.214035930926911533e-02
9.117469185730442405e-02
7.733345837914384902e-02
7.668968007783405483e-02
7.668968007783405483e-02
7.701156922848895192e-02
7.990857158438302577e-02
7.797723668045364320e-02
7.990857158438302577e-02
8.280557394027709961e-02
8.441501969355158508e-02
8.377124139224179089e-02
8.377124139224179089e-02
8.441501969355158508e-02
8.377124139224179089e-02
8.409313054289668798e-02
8.699013289879076183e-02
9.825625317171216011e-02
9.890003147302195430e-02
9.890003147302195430e-02
9.825625317171216011e-02
9.857814232236705720e-02
9.922192062367685139e-02
9.857814232236705720e-02
1.072691493900492787e-01
1.082348168420139700e-01
1.075910385407041758e-01
1.079129276913590729e-01
1.085567059926688671e-01
1.082348168420139700e-01
1.085567059926688671e-01
1.069472602393943816e-01
1.053378144861198962e-01
1.063034819380845875e-01
1.056597036367747933e-01
1.066253710887394845e-01
1.066253710887394845e-01
1.063034819380845875e-01
1.037283687328454107e-01
9.568113996647298336e-02
9.600302911712788045e-02
9.535925081581808627e-02
1.008313663769513369e-01
1.017970338289160281e-01
1.024408121302258223e-01
1.011532555276062340e-01
8.731202204944565892e-02
8.763391120010055602e-02
8.731202204944565892e-02
8.731202204944565892e-02
8.731202204944565892e-02
8.731202204944565892e-02
8.763391120010055602e-02
8.023046073503792286e-02
7.862101498176343739e-02
7.862101498176343739e-02
7.958668243372812867e-02
7.926479328307323158e-02
7.926479328307323158e-02
7.829912583110854030e-02
7.508023432455956936e-02
6.413600320229306817e-02
6.413600320229306817e-02
6.349222490098327398e-02
6.413600320229306817e-02
6.413600320229306817e-02
6.381411405163817108e-02
6.445789235294796526e-02
7.282701026997528970e-02
7.282701026997528970e-02
7.379267772193998098e-02
6.735489470884203911e-02
5.834199849050492048e-02
5.866388764115981758e-02
5.737633103854022920e-02
5.351366123068146408e-02
5.254799377871677279e-02
5.158232632675208151e-02
5.222610462806187570e-02
5.319177208002656698e-02
5.158232632675208151e-02
5.222610462806187570e-02
5.126043717609718442e-02
4.932910227216780186e-02
4.932910227216780186e-02
4.932910227216780186e-02
4.932910227216780186e-02
4.836343482020311058e-02
4.900721312151290476e-02
4.900721312151290476e-02
5.705444188788533211e-02
5.641066358657553792e-02
5.544499613461084664e-02
5.608877443592064083e-02
5.608877443592064083e-02
5.673255273723043501e-02
5.641066358657553792e-02
4.256943010841496289e-02
4.063809520448558033e-02
4.160376265645027161e-02
4.095998435514047742e-02
4.160376265645027161e-02
4.095998435514047742e-02
4.128187350579537451e-02
3.162519898614846170e-02
1.810585465864278376e-02
1.810585465864278376e-02
1.746207635733298957e-02
2.068096786388196051e-02
2.132474616519175470e-02
2.100285701453685760e-02
2.100285701453685760e-02
6.195956084411591291e-03
6.195956084411591291e-03
6.839734385721385479e-03
6.517845235066488385e-03
7.805401837686076760e-03
7.805401837686076760e-03
7.805401837686076760e-03
4.264621180482208729e-03
4.586510331137105823e-03
4.908399481792002916e-03
4.908399481792002916e-03
1.359940654947422445e-02
1.424318485078401864e-02
1.359940654947422445e-02
1.005862589227035642e-02
5.874066933756694198e-03
5.552177783101797104e-03
6.195956084411591291e-03
9.414847590960562229e-03
8.449180138995870948e-03
8.449180138995870948e-03
9.092958440305665135e-03
4.019513726234436035e-04
-2.418269286863505840e-04
4.019513726234436035e-04
4.586510331137105823e-03
8.771069289650768042e-03
1.005862589227035642e-02
8.771069289650768042e-03
-5.713942489819601178e-03
-5.713942489819601178e-03
-5.713942489819601178e-03
-6.357720791129395366e-03
4.019513726234436035e-04
8.006222196854650974e-05
-2.418269286863505840e-04
-7.645277393748983741e-03
-1.408306040684692562e-02
-1.472683870815671980e-02
-1.472683870815671980e-02
-8.932833996368572116e-03
-8.932833996368572116e-03
-8.932833996368572116e-03
-8.932833996368572116e-03
-2.084273257059976459e-02
-2.084273257059976459e-02
-2.084273257059976459e-02
-2.019895426928997040e-02
-2.116462172125466168e-02
-2.052084341994486749e-02
-2.052084341994486749e-02
-8.932833996368572116e-03
-8.932833996368572116e-03
-8.289055695058777928e-03
-9.898501448333263397e-03
-1.537061700946651399e-02
-1.537061700946651399e-02
-1.440494955750182271e-02
-7.323388243094086647e-03
-8.856052299961447716e-04
-1.529383531305938959e-03
-1.207494380651041865e-03
4.586510331137105823e-03
3.942732029827311635e-03
3.942732029827311635e-03
3.942732029827311635e-03
2.100285701453685760e-02
2.132474616519175470e-02
2.132474616519175470e-02
2.100285701453685760e-02
2.132474616519175470e-02
2.068096786388196051e-02
2.068096786388196051e-02
9.053091355599462986e-02
9.085280270664952695e-02
9.053091355599462986e-02
9.117469185730442405e-02
9.342791591188870370e-02
9.407169421319849789e-02
9.310602676123380661e-02
2.070547860930673778e-01
2.826987364969681948e-01
2.830206256476230919e-01
2.830206256476230919e-01
2.904240761126857251e-01
2.894584086607210338e-01
2.894584086607210338e-01
2.588789393485058099e-01
-2.165513361687771976e-01
-2.159075578674674034e-01
-2.155856687168125063e-01
-2.097916640050243586e-01
-2.056071050465106964e-01
-2.062508833478204906e-01
-2.056071050465106964e-01
-9.713046127581037581e-02
-9.745235042646527290e-02
-9.648668297450058162e-02
-9.680857212515547872e-02
-9.358968061860650778e-02
-9.391156976926140487e-02
-9.294590231729671359e-02
-5.560676084132865071e-02
-3.404018774745054543e-02
-3.468396604876033962e-02
-3.436207689810544252e-02
-2.856807218631729484e-02
-2.792429388500750065e-02
-2.921185048762708902e-02
-2.824618303566239774e-02
-2.019895426928997040e-02
-2.019895426928997040e-02
-2.019895426928997040e-02
-1.987706511863507330e-02
-1.987706511863507330e-02
-2.019895426928997040e-02
-2.052084341994486749e-02
-4.981275612954050303e-02
-4.916897782823070884e-02
-4.949086697888560593e-02
-4.949086697888560593e-02
-5.238786933477967978e-02
-5.238786933477967978e-02
-5.238786933477967978e-02
-5.946943064918741584e-02
-6.429776790901087224e-02
-6.397587875835597515e-02
-6.494154621032066643e-02
-6.751665941555984318e-02
-6.719477026490494609e-02
-6.719477026490494609e-02
-6.461965705966576934e-02
-5.270975848543457687e-02
-5.206598018412478268e-02
-5.270975848543457687e-02
-5.303164763608947396e-02
-5.270975848543457687e-02
-5.270975848543457687e-02
-5.367542593739926815e-02
-3.854663585661910474e-02
-3.951230330858379602e-02
-3.790285755530931056e-02
-3.951230330858379602e-02
-3.919041415792889893e-02
-3.983419245923869312e-02
-4.047797076054848731e-02
-3.822474670596420765e-02
-3.725907925399951637e-02
-3.790285755530931056e-02
-3.725907925399951637e-02
-3.790285755530931056e-02
-3.790285755530931056e-02
-3.822474670596420765e-02
-4.015608160989359021e-02
-5.238786933477967978e-02
-5.303164763608947396e-02
-5.335353678674437106e-02
-4.788142122561112046e-02
-4.659386462299153209e-02
-4.659386462299153209e-02
-4.659386462299153209e-02
-5.560676084132865071e-02
-5.592864999198354781e-02
-5.528487169067375362e-02
-5.464109338936395943e-02
-5.560676084132865071e-02
-5.464109338936395943e-02
-5.431920423870906234e-02
-7.459822072996757925e-02
-8.071411459241062403e-02
-8.071411459241062403e-02
-8.135789289372041821e-02
-8.039222544175572693e-02
-8.103600374306552112e-02
-8.039222544175572693e-02
-8.843945420812815428e-02
-1.090403598500415683e-01
-1.093622490006964654e-01
-1.096841381513513625e-01
-1.090403598500415683e-01
-1.087184706993866712e-01
-1.093622490006964654e-01
-1.080746923980768770e-01
-1.380103834089823067e-01
-1.383322725596372038e-01
-1.376884942583274096e-01
-1.370447159570176154e-01
-1.373666051076725125e-01
-1.370447159570176154e-01
-1.367228268063627183e-01
-2.345771286054514349e-01
-2.545342559460550547e-01
-2.538904776447452605e-01
-2.538904776447452605e-01
-2.622595955617725849e-01
-2.625814847124274820e-01
-2.625814847124274820e-01
-3.298563171993009746e-01
-4.901571142254397273e-01
-4.908008925267495215e-01
-4.901571142254397273e-01
-4.994918995944317430e-01
-5.023889019503258169e-01
-5.020670127996709198e-01
-5.014232344983611256e-01
-5.448782698367722332e-01
-5.452001589874271303e-01
-5.452001589874271303e-01
-5.381185976730193943e-01
-5.249211424961686134e-01
-5.245992533455137163e-01
-5.255649207974784076e-01
-2.522810318914707750e-01
-2.120448880596086383e-01
-2.120448880596086383e-01
-2.130105555115733296e-01
-2.043195484438911080e-01
-2.046414375945460051e-01
-2.039976592932362109e-01
-1.235253716295119375e-01
3.516597964335232973e-02
3.452220134204253554e-02
3.420031219138763845e-02
3.709731454728171229e-02
3.645353624597191811e-02
3.645353624597191811e-02
3.613164709531702101e-02
9.503736166516318917e-02
9.471547251450829208e-02
9.407169421319849789e-02
8.988713525468483567e-02
8.505879799486137927e-02
8.409313054289668798e-02
8.473690884420648217e-02
3.620842879172414541e-03
-4.426385887200012803e-03
-3.460718435235321522e-03
-3.782607585890218616e-03
-4.426385887200012803e-03
-4.104496736545115709e-03
-4.426385887200012803e-03
-2.921185048762708902e-02
-7.041366177145391703e-02
-7.170121837407350540e-02
-7.137932922341860831e-02
-7.652955563389696181e-02
-7.620766648324206471e-02
-7.652955563389696181e-02
-7.588577733258716762e-02
-1.058214683434925973e-01
-1.061433574941474944e-01
-1.061433574941474944e-01
-1.058214683434925973e-01
-1.061433574941474944e-01
-1.051776900421828032e-01
-1.048558008915279061e-01
-1.190189235203433782e-01
-1.190189235203433782e-01
-1.193408126709982753e-01
-1.193408126709982753e-01
-1.193408126709982753e-01
-1.190189235203433782e-01
-1.186970343696884811e-01
-1.154781428631395102e-01
-1.129030296579003334e-01
-1.125811405072454363e-01
-1.132249188085552305e-01
-1.096841381513513625e-01
-1.090403598500415683e-01
-1.100060273020062596e-01
-1.093622490006964654e-01
-9.487723722122609615e-02
-9.519912637188099325e-02
-9.519912637188099325e-02
-9.230212401598691940e-02
-8.908323250943794847e-02
-8.876134335878305137e-02
-8.843945420812815428e-02
-7.974844714044593275e-02
-8.007033629110082984e-02
-8.007033629110082984e-02
-7.910466883913613856e-02
-8.296733864699490368e-02
-8.232356034568510950e-02
-8.200167119503021240e-02
-7.910466883913613856e-02
-7.363255327800288796e-02
-7.395444242865778506e-02
-7.363255327800288796e-02
-7.395444242865778506e-02
-7.427633157931268215e-02
-7.395444242865778506e-02
-7.395444242865778506e-02
-6.011320895049721003e-02
-5.882565234787762165e-02
-5.946943064918741584e-02
-5.882565234787762165e-02
-5.946943064918741584e-02
-5.882565234787762165e-02
-6.011320895049721003e-02
-8.039222544175572693e-02
-8.039222544175572693e-02
-8.007033629110082984e-02
-8.039222544175572693e-02
-8.361111694830469787e-02
-8.457678440026938915e-02
-8.361111694830469787e-02
-1.006712419330142438e-01
-1.138686971098650247e-01
-1.141905862605199218e-01
-1.145124754111748189e-01
-1.196627018216531724e-01
-1.203064801229629666e-01
-1.203064801229629666e-01
-1.206283692736178637e-01
-1.444481664220802486e-01
-1.438043881207704544e-01
-1.444481664220802486e-01
-1.444481664220802486e-01
-1.444481664220802486e-01
-1.454138338740449399e-01
-1.444481664220802486e-01
-1.293193763413000852e-01
-1.299631546426098794e-01
-1.299631546426098794e-01
-1.296412654919549823e-01
-1.312507112452294677e-01
-1.306069329439196736e-01
-1.309288220945745707e-01
-1.116154730552807450e-01
-9.745235042646527290e-02
-9.841801787842996418e-02
-9.809612872777506709e-02
-9.777423957712017000e-02
-9.745235042646527290e-02
-9.680857212515547872e-02
-9.713046127581037581e-02
-7.685144478455185890e-02
-7.652955563389696181e-02
-7.556388818193227053e-02
-7.588577733258716762e-02
-7.556388818193227053e-02
-7.588577733258716762e-02
-7.556388818193227053e-02
-2.599295898107811809e-02
-2.567106983042322099e-02
-2.631484813173301518e-02
-2.599295898107811809e-02
-2.567106983042322099e-02
-2.534918067976832390e-02
-2.534918067976832390e-02
2.518741597305051982e-02
5.673255273723043501e-02
5.673255273723043501e-02
5.673255273723043501e-02
6.252655744901858270e-02
6.188277914770878851e-02
6.188277914770878851e-02
6.767678385949693620e-02
1.298013899358920753e-01
1.291576116345822811e-01
1.288357224839273840e-01
1.098442625952884555e-01
9.986569892498664558e-02
1.001875880756415427e-01
9.890003147302195430e-02
-8.457678440026938915e-02
-8.457678440026938915e-02
-8.361111694830469787e-02
-8.071411459241062403e-02
-4.595008632168173790e-02
-4.627197547233663499e-02
-4.595008632168173790e-02
3.184284322196617723e-01
5.035146938462276012e-01
5.035146938462276012e-01
5.028709155449178070e-01
-9.680857212515547872e-02
-9.616479382384568453e-02
-9.648668297450058162e-02
-1.504872785881161690e-02
5.305533825012389570e-01
5.286220475973095745e-01
5.286220475973095745e-01
4.774416726431809366e-01
4.552313212479930371e-01
4.536218754947185516e-01
4.539437646453734487e-01
-6.507798004022333771e-01
-6.488484654983039945e-01
-6.482046871969942003e-01
-6.501360221009235829e-01
-6.675180362362880260e-01
-6.671961470856331289e-01
-6.681618145375978202e-01
-8.242780526052229106e-01
-8.889777718868572265e-01
-8.880121044348925352e-01
-8.886558827362023294e-01
-7.862951328279450536e-01
-7.856513545266352594e-01
-7.856513545266352594e-01
-7.232048592995852232e-01
-4.257792840944603086e-01
-4.254573949438054115e-01
-4.261011732451152056e-01
-4.145131638215389103e-01
-4.112942723149899393e-01
-4.112942723149899393e-01
-4.109723831643350422e-01
-2.593625932058785111e-01
-2.593625932058785111e-01
-2.600063715071883053e-01
-2.600063715071883053e-01
-2.564655908499844372e-01
-2.561437016993295401e-01
-2.561437016993295401e-01
-2.751351615879684687e-01
-2.799634988477919251e-01
-2.799634988477919251e-01
-2.796416096971370280e-01
-2.892982842167839408e-01
-2.886545059154741466e-01
-2.886545059154741466e-01
-2.809291662997566164e-01
-2.564655908499844372e-01
-2.561437016993295401e-01
-2.567874800006393343e-01
-2.558218125486746430e-01
-2.558218125486746430e-01
-2.564655908499844372e-01
-2.561437016993295401e-01
-2.142981121141929179e-01
-2.152637795661576092e-01
-2.155856687168125063e-01
-2.149418904155027121e-01
-2.149418904155027121e-01
-2.146200012648478150e-01
-2.152637795661576092e-01
-2.307144587975926697e-01
-2.355427960574161261e-01
-2.355427960574161261e-01
-2.352209069067612290e-01
-2.262080106884241104e-01
-2.265298998390790075e-01
-2.268517889897339046e-01
-2.316801262495573610e-01
-2.442338031250983477e-01
-2.442338031250983477e-01
-2.432681356731336564e-01
-2.451994705770630389e-01
-2.439119139744434506e-01
-2.451994705770630389e-01
-2.442338031250983477e-01
-2.297487913456279784e-01
-2.297487913456279784e-01
-2.297487913456279784e-01
-2.303925696469377726e-01
-2.294269021949730814e-01
-2.303925696469377726e-01
-2.300706804962828755e-01
-2.107573314569890499e-01
-2.062508833478204906e-01
-2.075384399504400790e-01
-2.065727724984753877e-01
-2.011006569373421371e-01
-2.017444352386519313e-01
-2.014225460879970342e-01
-2.004568786360323429e-01
-1.988474328827578574e-01
-1.991693220334127545e-01
-1.994912111840676516e-01
-1.985255437321029603e-01
-1.998131003347225487e-01
-1.991693220334127545e-01
-2.001349894853774458e-01
-2.310363479482475668e-01
-2.316801262495573610e-01
-2.323239045508671552e-01
-2.332895720028318465e-01
-2.332895720028318465e-01
-2.329676828521769494e-01
-2.326457937015220523e-01
-2.210577842779457569e-01
-2.191264493740163743e-01
-2.197702276753261685e-01
-2.184826710727065802e-01
-2.175170036207418889e-01
-2.168732253194320947e-01
-2.168732253194320947e-01
-2.110792206076439470e-01
-2.017444352386519313e-01
-2.017444352386519313e-01
-2.020663243893068284e-01
-2.101135531556792557e-01
-2.110792206076439470e-01
-2.101135531556792557e-01
-2.104354423063341528e-01
-1.895126475137658417e-01
-1.895126475137658417e-01
-1.895126475137658417e-01
-1.946628739242441952e-01
-2.011006569373421371e-01
-2.011006569373421371e-01
-2.017444352386519313e-01
-2.142981121141929179e-01
-2.152637795661576092e-01
-2.149418904155027121e-01
-2.155856687168125063e-01
-2.001349894853774458e-01
-2.007787677866872400e-01
-2.001349894853774458e-01
-2.123667772102635354e-01
-2.284612347430083901e-01
-2.284612347430083901e-01
-2.274955672910436988e-01
-2.303925696469377726e-01
-2.307144587975926697e-01
-2.313582370989024639e-01
-2.307144587975926697e-01
-4.325389562582131475e-01
-4.322170671075582504e-01
-4.325389562582131475e-01
-4.560368642560206354e-01
-4.853287769656162709e-01
-4.843631095136515796e-01
-4.850068878149613738e-01
-3.688049044285435230e-01
-3.668735695246141404e-01
-3.678392369765788317e-01
-3.684830152778886259e-01
-3.581825624569319189e-01
-3.594701190595515072e-01
-3.585044516075868160e-01
-2.300706804962828755e-01
-7.492010988062247634e-02
-7.556388818193227053e-02
-7.588577733258716762e-02
-7.009177262079901993e-02
-7.041366177145391703e-02
-7.041366177145391703e-02
-7.041366177145391703e-02
5.552177783101797104e-03
5.230288632446900010e-03
5.874066933756694198e-03
3.620842879172414541e-03
2.011397125897929072e-03
1.367618824588134885e-03
2.655175427207723260e-03
-9.809612872777506709e-02
-9.809612872777506709e-02
-9.809612872777506709e-02
-9.841801787842996418e-02
-1.013150202343240380e-01
-1.022806876862887293e-01
-1.013150202343240380e-01
-1.405854966142214835e-01
-1.811435295967385173e-01
-1.801778621447738260e-01
-1.808216404460836202e-01
-1.808216404460836202e-01
-1.811435295967385173e-01
-1.808216404460836202e-01
-1.817873078980483115e-01
-2.307144587975926697e-01
-2.313582370989024639e-01
-2.310363479482475668e-01
-2.313582370989024639e-01
-2.316801262495573610e-01
-2.313582370989024639e-01
-2.310363479482475668e-01
-2.554999233980197459e-01
-2.542123667954001576e-01
-2.545342559460550547e-01
-2.545342559460550547e-01
-2.542123667954001576e-01
-2.548561450967099518e-01
-2.558218125486746430e-01
-2.661222653696313500e-01
-2.761008290399331599e-01
-2.751351615879684687e-01
-2.751351615879684687e-01
-2.686973785748705268e-01
-2.680536002735607326e-01
-2.680536002735607326e-01
-2.686973785748705268e-01
-2.732038266840390861e-01
-2.735257158346939832e-01
-2.735257158346939832e-01
-2.706287134787999094e-01
-2.674098219722509384e-01
-2.670879328215960413e-01
-2.674098219722509384e-01
-2.435900248237885535e-01
-2.435900248237885535e-01
-2.432681356731336564e-01
-2.435900248237885535e-01
-2.432681356731336564e-01
-2.429462465224787593e-01
-2.432681356731336564e-01
-2.255642323871143162e-01
-2.136543338128831238e-01
-2.133324446622282267e-01
-2.139762229635380208e-01
-2.139762229635380208e-01
-2.142981121141929179e-01
-2.130105555115733296e-01
-2.123667772102635354e-01
-1.782465272408444434e-01
-1.788903055421542376e-01
-1.785684163914993405e-01
-1.782465272408444434e-01
-1.788903055421542376e-01
-1.782465272408444434e-01
-1.788903055421542376e-01
-1.550705083936918527e-01
-1.557142866950016469e-01
-1.553923975443467498e-01
-1.553923975443467498e-01
-1.553923975443467498e-01
-1.560361758456565440e-01
-1.563580649963114411e-01
-1.467013904766645283e-01
-1.409073857648763806e-01
-1.415511640661861748e-01
-1.402636074635665864e-01
-1.441262772714253515e-01
-1.431606098194606602e-01
-1.441262772714253515e-01
-1.418730532168410718e-01
-1.299631546426098794e-01
-1.299631546426098794e-01
-1.299631546426098794e-01
-1.392979400116018951e-01
-1.441262772714253515e-01
-1.444481664220802486e-01
-1.447700555727351457e-01
-1.653709612146485597e-01
-1.656928503653034568e-01
-1.656928503653034568e-01
-1.666585178172681481e-01
-1.711649659264367074e-01
-1.724525225290562958e-01
-1.727744116797111928e-01
-1.850061994045972824e-01
-1.895126475137658417e-01
-1.898345366644207388e-01
-1.895126475137658417e-01
-1.908002041163854301e-01
-1.908002041163854301e-01
-1.920877607190050185e-01
-1.933753173216246068e-01
-2.052852158958557993e-01
-2.046414375945460051e-01
-2.052852158958557993e-01
-2.052852158958557993e-01
-2.052852158958557993e-01
-2.056071050465106964e-01
-2.052852158958557993e-01
-2.123667772102635354e-01
-2.120448880596086383e-01
-2.117229989089537412e-01
-2.120448880596086383e-01
-2.110792206076439470e-01
-2.104354423063341528e-01
-2.107573314569890499e-01
-2.255642323871143162e-01
-2.310363479482475668e-01
-2.310363479482475668e-01
-2.307144587975926697e-01
-2.307144587975926697e-01
-2.307144587975926697e-01
-2.300706804962828755e-01
-2.352209069067612290e-01
-2.532466993434354663e-01
-2.529248101927805692e-01
-2.526029210421256721e-01
-2.529248101927805692e-01
-2.522810318914707750e-01
-2.522810318914707750e-01
-2.519591427408158779e-01
-2.609720389591529965e-01
-2.606501498084980994e-01
-2.612939281098078936e-01
-2.600063715071883053e-01
-2.577531474526040256e-01
-2.567874800006393343e-01
-2.571093691512942314e-01
-2.461651380290277302e-01
-2.432681356731336564e-01
-2.426243573718238622e-01
-2.426243573718238622e-01
-2.468089163303375244e-01
-2.458432488783728331e-01
-2.468089163303375244e-01
-2.394054658652748913e-01
-2.165513361687771976e-01
-2.168732253194320947e-01
-2.168732253194320947e-01
-2.152637795661576092e-01
-2.155856687168125063e-01
-2.146200012648478150e-01
-2.149418904155027121e-01
-1.882250909111462533e-01
-1.885469800618011504e-01
-1.885469800618011504e-01
-1.891907583631109446e-01
-1.879032017604913563e-01
-1.882250909111462533e-01
-1.885469800618011504e-01
-1.737400791316758841e-01
-1.708430767757818103e-01
-1.708430767757818103e-01
-1.698774093238171190e-01
-1.650490720639936626e-01
-1.640834046120289713e-01
-1.656928503653034568e-01
-1.698774093238171190e-01
-1.801778621447738260e-01
-1.801778621447738260e-01
-1.788903055421542376e-01
-1.850061994045972824e-01
-1.856499777059070766e-01
-1.866156451578717679e-01
-1.859718668565619737e-01
-2.390835767146199942e-01
-2.390835767146199942e-01
-2.387616875639650971e-01
-2.410149116185493767e-01
-2.451994705770630389e-01
-2.455213597277179360e-01
-2.455213597277179360e-01
-2.957360672298818827e-01
-3.044270742975641042e-01
-3.044270742975641042e-01
-3.041051851469092071e-01
-3.041051851469092071e-01
-3.041051851469092071e-01
-3.044270742975641042e-01
-3.134399705159012228e-01
-3.330752087058499455e-01
-3.337189870071597397e-01
-3.333970978565048426e-01
-3.353284327604342252e-01
-3.366159893630538136e-01
-3.362941002123989165e-01
-3.369378785137087107e-01
-3.121524139132816344e-01
-3.121524139132816344e-01
-3.124743030639365315e-01
-3.098991898586973548e-01
-3.060365200508385897e-01
-3.066802983521483839e-01
-3.057146309001836926e-01
-2.761008290399331599e-01
-2.735257158346939832e-01
-2.732038266840390861e-01
-2.728819375333841890e-01
-2.754570507386233658e-01
-2.761008290399331599e-01
-2.754570507386233658e-01
-2.690192677255254239e-01
-2.577531474526040256e-01
-2.583969257539138198e-01
-2.587188149045687169e-01
-2.612939281098078936e-01
-2.609720389591529965e-01
-2.609720389591529965e-01
-2.609720389591529965e-01
-2.571093691512942314e-01
-2.587188149045687169e-01
-2.574312583019491285e-01
-2.590407040552236140e-01
-2.600063715071883053e-01
-2.603282606578432024e-01
-2.606501498084980994e-01
-2.329676828521769494e-01
-2.313582370989024639e-01
-2.320020154002122581e-01
-2.307144587975926697e-01
-2.307144587975926697e-01
-2.313582370989024639e-01
-2.310363479482475668e-01
-2.313582370989024639e-01
-2.316801262495573610e-01
-2.307144587975926697e-01
-2.320020154002122581e-01
-2.316801262495573610e-01
-2.320020154002122581e-01
-2.307144587975926697e-01
-2.310363479482475668e-01
-2.313582370989024639e-01
-2.313582370989024639e-01
-2.313582370989024639e-01
-2.313582370989024639e-01
-2.303925696469377726e-01
-2.310363479482475668e-01
-2.310363479482475668e-01
-2.310363479482475668e-01
-2.313582370989024639e-01
-2.320020154002122581e-01
-2.313582370989024639e-01
-2.320020154002122581e-01
-2.323239045508671552e-01
-2.329676828521769494e-01
-2.320020154002122581e-01
-2.326457937015220523e-01
-2.323239045508671552e-01
-2.323239045508671552e-01
-2.323239045508671552e-01
-2.332895720028318465e-01
-2.329676828521769494e-01
-2.342552394547965378e-01
-2.342552394547965378e-01
-2.348990177561063319e-01
-2.345771286054514349e-01
-2.345771286054514349e-01
-2.345771286054514349e-01
-2.342552394547965378e-01
-2.342552394547965378e-01
-2.345771286054514349e-01
-2.342552394547965378e-01
-2.352209069067612290e-01
-2.345771286054514349e-01
-2.336114611534867436e-01
-2.342552394547965378e-01
-2.345771286054514349e-01
-2.348990177561063319e-01
-2.345771286054514349e-01
-2.339333503041416407e-01
-2.329676828521769494e-01
-2.332895720028318465e-01
-2.329676828521769494e-01
-2.339333503041416407e-01
-2.336114611534867436e-01
-2.332895720028318465e-01
-2.332895720028318465e-01
-2.336114611534867436e-01
-2.326457937015220523e-01
-2.320020154002122581e-01
-2.326457937015220523e-01
-2.326457937015220523e-01
-2.316801262495573610e-01
-2.323239045508671552e-01
-2.323239045508671552e-01
-2.320020154002122581e-01
-2.320020154002122581e-01
-2.323239045508671552e-01
-2.316801262495573610e-01
-2.316801262495573610e-01
-2.313582370989024639e-01
-2.316801262495573610e-01
-2.316801262495573610e-01
-2.316801262495573610e-01
-2.307144587975926697e-01
-2.313582370989024639e-01
-2.307144587975926697e-01
-2.320020154002122581e-01
-2.303925696469377726e-01
-2.316801262495573610e-01
-2.307144587975926697e-01
-2.307144587975926697e-01
-2.310363479482475668e-01
-2.316801262495573610e-01
-2.313582370989024639e-01
-2.320020154002122581e-01
-2.303925696469377726e-01
-2.313582370989024639e-01
-2.316801262495573610e-01
-2.313582370989024639e-01
-2.316801262495573610e-01
-2.313582370989024639e-01
-2.307144587975926697e-01
-2.310363479482475668e-01
-2.310363479482475668e-01
-2.320020154002122581e-01
-2.310363479482475668e-01
-2.313582370989024639e-01
-2.313582370989024639e-01
-2.316801262495573610e-01
-2.307144587975926697e-01
-2.313582370989024639e-01
-2.313582370989024639e-01
-2.310363479482475668e-01
-2.316801262495573610e-01
-2.316801262495573610e-01
-2.320020154002122581e-01
-2.316801262495573610e-01
-2.323239045508671552e-01
-2.320020154002122581e-01
-2.316801262495573610e-01
-2.332895720028318465e-01
-2.326457937015220523e-01
-2.320020154002122581e-01
-2.329676828521769494e-01
-2.329676828521769494e-01
-2.326457937015220523e-01
-2.329676828521769494e-01
-2.332895720028318465e-01
-2.342552394547965378e-01
-2.345771286054514349e-01
-2.342552394547965378e-01
-2.355427960574161261e-01
-2.348990177561063319e-01
-2.348990177561063319e-01
-2.342552394547965378e-01
-2.339333503041416407e-01
-2.345771286054514349e-01
-2.345771286054514349e-01
-2.345771286054514349e-01
-2.352209069067612290e-01
-2.345771286054514349e-01
-2.345771286054514349e-01
-2.339333503041416407e-01
-2.345771286054514349e-01
-2.332895720028318465e-01
-2.345771286054514349e-01
-2.339333503041416407e-01
-2.336114611534867436e-01
-2.332895720028318465e-01
-2.332895720028318465e-01
-2.329676828521769494e-01
-2.339333503041416407e-01
-2.339333503041416407e-01
-2.332895720028318465e-01
-2.326457937015220523e-01
-2.332895720028318465e-01
-2.332895720028318465e-01
-2.332895720028318465e-01
-2.326457937015220523e-01
-2.326457937015220523e-01
-2.326457937015220523e-01
-2.323239045508671552e-01
-2.320020154002122581e-01
-2.323239045508671552e-01
-2.323239045508671552e-01
-2.313582370989024639e-01
-2.323239045508671552e-01
-2.329676828521769494e-01
-2.326457937015220523e-01
-2.323239045508671552e-01
-2.320020154002122581e-01
-2.313582370989024639e-01
-2.320020154002122581e-01
-2.310363479482475668e-01
-2.316801262495573610e-01
-2.320020154002122581e-01
-2.316801262495573610e-01
-2.316801262495573610e-01
-2.323239045508671552e-01
-2.320020154002122581e-01
-2.320020154002122581e-01
-2.320020154002122581e-01
-2.323239045508671552e-01
-2.320020154002122581e-01
-2.320020154002122581e-01
-2.310363479482475668e-01
-2.316801262495573610e-01
-2.313582370989024639e-01
-2.320020154002122581e-01
-2.320020154002122581e-01
-2.320020154002122581e-01
-2.320020154002122581e-01
-2.320020154002122581e-01
-2.320020154002122581e-01
-2.316801262495573610e-01
-2.316801262495573610e-01
-2.323239045508671552e-01
-2.323239045508671552e-01
-2.316801262495573610e-01
-2.323239045508671552e-01
-2.332895720028318465e-01
-2.323239045508671552e-01
-2.329676828521769494e-01
-2.329676828521769494e-01
-2.329676828521769494e-01
-2.326457937015220523e-01
-2.336114611534867436e-01
-2.342552394547965378e-01
-2.332895720028318465e-01
-2.336114611534867436e-01
-2.348990177561063319e-01
-2.348990177561063319e-01
-2.352209069067612290e-01
-2.348990177561063319e-01
-2.361865743587259203e-01
-2.410149116185493767e-01
-2.416586899198591709e-01
-2.410149116185493767e-01
-2.416586899198591709e-01
-2.416586899198591709e-01
-2.419805790705140680e-01
-2.416586899198591709e-01
-2.339333503041416407e-01
-2.268517889897339046e-01
-2.265298998390790075e-01
-2.262080106884241104e-01
-2.265298998390790075e-01
-2.262080106884241104e-01
-2.265298998390790075e-01
-2.258861215377692133e-01
-2.345771286054514349e-01
-2.332895720028318465e-01
-2.342552394547965378e-01
-2.323239045508671552e-01
-2.307144587975926697e-01
-2.310363479482475668e-01
-2.313582370989024639e-01
-2.329676828521769494e-01
-2.336114611534867436e-01
-2.323239045508671552e-01
-2.332895720028318465e-01
-2.326457937015220523e-01
-2.329676828521769494e-01
-2.326457937015220523e-01
-2.387616875639650971e-01
-2.435900248237885535e-01
-2.442338031250983477e-01
-2.435900248237885535e-01
-2.387616875639650971e-01
-2.384397984133102000e-01
-2.368303526600357145e-01
-2.381179092626553029e-01
-2.583969257539138198e-01
-2.574312583019491285e-01
-2.577531474526040256e-01
-2.580750366032589227e-01
-2.580750366032589227e-01
-2.577531474526040256e-01
-2.583969257539138198e-01
-2.458432488783728331e-01
-2.464870271796826273e-01
-2.464870271796826273e-01
-2.468089163303375244e-01
-2.577531474526040256e-01
-2.583969257539138198e-01
-2.583969257539138198e-01
-2.680536002735607326e-01
-2.725600483827292919e-01
-2.735257158346939832e-01
-2.728819375333841890e-01
-2.732038266840390861e-01
-2.735257158346939832e-01
-2.735257158346939832e-01
-2.741694941360037774e-01
-2.873669493128545582e-01
-2.880107276141643524e-01
-2.886545059154741466e-01
-2.889763950661290437e-01
-2.909077299700584263e-01
-2.902639516687486321e-01
-2.915515082713682204e-01
-3.060365200508385897e-01
-3.057146309001836926e-01
-3.057146309001836926e-01
-3.057146309001836926e-01
-3.057146309001836926e-01
-3.060365200508385897e-01
-3.066802983521483839e-01
-3.156931945704855025e-01
-3.214871992822736502e-01
-3.221309775835834444e-01
-3.214871992822736502e-01
-3.214871992822736502e-01
-3.218090884329285473e-01
-3.224528667342383415e-01
-3.214871992822736502e-01
-3.137618596665561199e-01
-3.134399705159012228e-01
-3.134399705159012228e-01
-3.195558643783442676e-01
-3.227747558848932385e-01
-3.230966450355481356e-01
-3.227747558848932385e-01
-3.137618596665561199e-01
-3.134399705159012228e-01
-3.144056379678659141e-01
-3.144056379678659141e-01
-3.150494162691757083e-01
-3.140837488172110170e-01
-3.137618596665561199e-01
-3.089335224067326635e-01
-3.076459658041130751e-01
-3.073240766534581780e-01
-3.079678549547679722e-01
-3.073240766534581780e-01
-3.070021875028032809e-01
-3.070021875028032809e-01
-3.066802983521483839e-01
-3.037832959962543100e-01
-3.041051851469092071e-01
-3.037832959962543100e-01
-3.053927417495287955e-01
-3.066802983521483839e-01
-3.073240766534581780e-01
-3.066802983521483839e-01
-3.034614068455994129e-01
-3.031395176949445158e-01
-3.037832959962543100e-01
-3.047489634482190013e-01
-3.121524139132816344e-01
-3.121524139132816344e-01
-3.118305247626267374e-01
-3.012081827910151333e-01
-2.973455129831563681e-01
-2.967017346818465739e-01
-2.976674021338112652e-01
-2.957360672298818827e-01
-2.973455129831563681e-01
-2.963798455311916769e-01
-2.934828431752976030e-01
-2.812510554504115134e-01
-2.818948337517213076e-01
-2.818948337517213076e-01
-2.870450601621996611e-01
-2.880107276141643524e-01
-2.873669493128545582e-01
-2.880107276141643524e-01
-2.583969257539138198e-01
-2.583969257539138198e-01
-2.580750366032589227e-01
-2.583969257539138198e-01
-2.583969257539138198e-01
-2.587188149045687169e-01
-2.583969257539138198e-01
-2.480964729329571128e-01
-2.445556922757532448e-01
-2.451994705770630389e-01
-2.448775814264081419e-01
-2.445556922757532448e-01
-2.445556922757532448e-01
-2.439119139744434506e-01
-2.410149116185493767e-01
-2.303925696469377726e-01
-2.291050130443181843e-01
-2.310363479482475668e-01
-2.303925696469377726e-01
-2.307144587975926697e-01
-2.307144587975926697e-01
-2.303925696469377726e-01
-2.107573314569890499e-01
-2.107573314569890499e-01
-2.117229989089537412e-01
-2.130105555115733296e-01
-2.171951144700869918e-01
-2.188045602233614773e-01
-2.184826710727065802e-01
-1.975598762801382691e-01
-1.920877607190050185e-01
-1.924096498696599156e-01
-1.927315390203148127e-01
-1.888688692124560475e-01
-1.888688692124560475e-01
-1.895126475137658417e-01
-1.817873078980483115e-01
-1.637615154613740742e-01
-1.637615154613740742e-01
-1.644052937626838684e-01
-1.637615154613740742e-01
-1.637615154613740742e-01
-1.634396263107191771e-01
-1.637615154613740742e-01
-1.261004848347511142e-01
-1.254567065334413201e-01
-1.261004848347511142e-01
-1.254567065334413201e-01
-1.248129282321315259e-01
-1.254567065334413201e-01
-1.254567065334413201e-01
-1.048558008915279061e-01
-1.013150202343240380e-01
-1.009931310836691409e-01
-1.013150202343240380e-01
-9.487723722122609615e-02
-9.455534807057119906e-02
-9.455534807057119906e-02
-9.906179617973975837e-02
-1.096841381513513625e-01
-1.093622490006964654e-01
-1.090403598500415683e-01
-1.138686971098650247e-01
-1.148343645618297160e-01
-1.141905862605199218e-01
-1.145124754111748189e-01
-1.901564258150756359e-01
-1.901564258150756359e-01
-1.898345366644207388e-01
-1.920877607190050185e-01
-1.962723196775186807e-01
-1.962723196775186807e-01
-1.956285413762088865e-01
-2.622595955617725849e-01
-2.683754894242156297e-01
-2.683754894242156297e-01
-2.686973785748705268e-01
-2.683754894242156297e-01
-2.690192677255254239e-01
-2.696630460268352181e-01
-2.825386120530311018e-01
-3.037832959962543100e-01
-3.037832959962543100e-01
-3.037832959962543100e-01
-3.044270742975641042e-01
-3.041051851469092071e-01
-3.041051851469092071e-01
-3.041051851469092071e-01
-2.979892912844661623e-01
-2.976674021338112652e-01
-2.976674021338112652e-01
-2.995987370377406478e-01
-3.028176285442896187e-01
-3.034614068455994129e-01
-3.037832959962543100e-01
-2.838261686556506902e-01
-2.822167229023762047e-01
-2.828605012036859989e-01
-2.831823903543408960e-01
-2.835042795049957931e-01
-2.828605012036859989e-01
-2.838261686556506902e-01
-2.773883856425527483e-01
-2.693411568761803210e-01
-2.696630460268352181e-01
-2.690192677255254239e-01
-2.754570507386233658e-01
-2.751351615879684687e-01
-2.764227181905880570e-01
-2.764227181905880570e-01
-2.786759422451723367e-01
-2.789978313958272338e-01
-2.799634988477919251e-01
-2.796416096971370280e-01
-2.806072771491017193e-01
-2.799634988477919251e-01
-2.806072771491017193e-01
-2.941266214766073972e-01
-2.944485106272622943e-01
-2.941266214766073972e-01
-2.950922889285720885e-01
-2.950922889285720885e-01
-2.941266214766073972e-01
-2.947703997779171914e-01
-3.047489634482190013e-01
-3.156931945704855025e-01
-3.156931945704855025e-01
-3.147275271185208112e-01
-3.150494162691757083e-01
-3.153713054198306054e-01
-3.147275271185208112e-01
-3.147275271185208112e-01
-3.668735695246141404e-01
-3.665516803739592433e-01
-3.671954586752690375e-01
-3.662297912233043462e-01
-3.665516803739592433e-01
-3.668735695246141404e-01
-3.655860129219945520e-01
-4.544274185027461499e-01
-4.541055293520912528e-01
-4.537836402014363557e-01
-4.537836402014363557e-01
-4.592557557625696063e-01
-4.589338666119147092e-01
-4.592557557625696063e-01
-4.251355057931505144e-01
-3.935903690289705992e-01
-3.942341473302803934e-01
-3.945560364809352905e-01
-3.845774728106334805e-01
-3.861869185639079660e-01
-3.861869185639079660e-01
-3.852212511119432747e-01
-1.071090249461121857e-01
-1.077528032474219799e-01
-1.071090249461121857e-01
-1.032463551382534206e-01
-1.000274636317044497e-01
-9.970557448104955256e-02
-9.970557448104955256e-02
-2.888996133697219193e-02
-2.888996133697219193e-02
-3.049940709024667740e-02
-3.082129624090157449e-02
-4.434064056840725243e-02
-4.337497311644256115e-02
-4.434064056840725243e-02
-9.326779146795161068e-02
-1.299631546426098794e-01
-1.286755980399902910e-01
-1.296412654919549823e-01
-1.232034824788570404e-01
-1.241691499308217317e-01
-1.241691499308217317e-01
-1.241691499308217317e-01
-1.331820461491588503e-01
-1.331820461491588503e-01
-1.338258244504686445e-01
-1.335039352998137474e-01
-1.335039352998137474e-01
-1.331820461491588503e-01
-1.331820461491588503e-01
-1.553923975443467498e-01
-1.544267300923820585e-01
-1.541048409417271614e-01
-1.544267300923820585e-01
-1.611864022561348975e-01
-1.598988456535153091e-01
-1.611864022561348975e-01
-1.518516168871428818e-01
-1.460576121753547341e-01
-1.457357230246998370e-01
-1.467013904766645283e-01
-1.467013904766645283e-01
-1.473451687779743224e-01
-1.473451687779743224e-01
-1.450919447233900428e-01
-1.209502584242727607e-01
-1.209502584242727607e-01
-1.215940367255825549e-01
-1.219159258762374520e-01
-1.215940367255825549e-01
-1.209502584242727607e-01
-1.209502584242727607e-01
-3.886852500727400184e-02
-4.015608160989359021e-02
-4.015608160989359021e-02
-3.919041415792889893e-02
-3.371829859679564834e-02
-3.371829859679564834e-02
-3.404018774745054543e-02
2.969386408221907914e-02
6.317033575032837689e-02
6.317033575032837689e-02
6.284844659967347980e-02
6.864245131146162748e-02
6.960811876342631876e-02
6.928622961277142167e-02
4.289131925906985998e-02
-1.360790485050529242e-01
-1.351133810530882329e-01
-1.351133810530882329e-01
-1.949847630748990923e-01
-2.229891191818751395e-01
-2.223453408805653453e-01
-2.223453408805653453e-01
6.361330239160452038e-01
6.338797998614609241e-01
6.335579107108060271e-01
6.586652644618880004e-01
7.986870449967682362e-01
7.983651558461133391e-01
7.993308232980780303e-01
2.006170030799694359e-01
-4.530630802037194371e-02
-4.466252971906214952e-02
-4.530630802037194371e-02
7.417126653308514506e-01
7.413907761801965535e-01
7.404251087282318622e-01
4.928923518746159971e-01
-6.749214867013506591e-01
-6.729901517974212766e-01
-6.729901517974212766e-01
-7.042133994109462947e-01
-7.161232979851774871e-01
-7.158014088345225900e-01
-7.154795196838676929e-01
-1.242733948456589133e+00
-1.242090170155279338e+00
-1.240802613552659750e+00
-1.243377726757898927e+00
-1.251746844674926251e+00
-1.252068733825581148e+00
-1.251424955524271354e+00
-1.020630434504710138e+00
-9.436989274981897324e-01
-9.436989274981897324e-01
-9.430551491968799382e-01
-9.237418001575861126e-01
-9.237418001575861126e-01
-9.247074676095508039e-01
-8.023895903606899083e-01
-3.771740223455708474e-01
-3.781396897975355387e-01
-3.778178006468806416e-01
-3.655860129219945520e-01
-3.614014539634808898e-01
-3.614014539634808898e-01
-3.626890105661004782e-01
-5.689431744394823909e-02
-5.914754149853251874e-02
-5.914754149853251874e-02
-5.753809574525803328e-02
-5.110031273216009140e-02
-5.206598018412478268e-02
-5.142220188281498849e-02
2.229041361715644598e-02
4.128187350579537451e-02
4.063809520448558033e-02
3.935053860186599195e-02
3.355653389007784426e-02
3.387842304073274136e-02
3.323464473942294717e-02
2.333286276552826166e-03
-8.425489524961449206e-02
-8.393300609895959496e-02
-8.393300609895959496e-02
-8.843945420812815428e-02
-9.069267826271243393e-02
-8.972701081074774265e-02
-9.004889996140263975e-02
-1.962723196775186807e-01
-1.959504305268637836e-01
-1.953066522255539894e-01
-1.965942088281735778e-01
-2.014225460879970342e-01
-2.004568786360323429e-01
-2.011006569373421371e-01
-2.303925696469377726e-01
-2.352209069067612290e-01
-2.342552394547965378e-01
-2.352209069067612290e-01
-2.294269021949730814e-01
-2.294269021949730814e-01
-2.287831238936632872e-01
-2.200921168259810656e-01
-2.001349894853774458e-01
-2.004568786360323429e-01
-1.985255437321029603e-01
-1.940190956229344010e-01
-1.930534281709697098e-01
-1.924096498696599156e-01
-1.927315390203148127e-01
-1.492765036819037050e-01
-1.492765036819037050e-01
-1.479889470792841166e-01
-1.483108362299390137e-01
-1.476670579286292195e-01
-1.479889470792841166e-01
-1.492765036819037050e-01
-1.222378150268923491e-01
-1.199845909723080695e-01
-1.193408126709982753e-01
-1.203064801229629666e-01
-1.190189235203433782e-01
-1.206283692736178637e-01
-1.193408126709982753e-01
-1.112935839046258479e-01
-9.616479382384568453e-02
-9.713046127581037581e-02
-9.648668297450058162e-02
-1.022806876862887293e-01
-1.019587985356338322e-01
-1.026025768369436264e-01
-1.019587985356338322e-01
-7.556388818193227053e-02
-7.427633157931268215e-02
-7.556388818193227053e-02
-7.556388818193227053e-02
-7.556388818193227053e-02
-7.492010988062247634e-02
-7.556388818193227053e-02
-4.530630802037194371e-02
-4.434064056840725243e-02
-4.466252971906214952e-02
-4.466252971906214952e-02
-4.530630802037194371e-02
-4.498441886971704662e-02
-4.434064056840725243e-02
-2.213028917321935296e-02
1.198996079619973898e-02
1.070240419358015060e-02
1.102429334423504770e-02
1.134618249488994479e-02
1.070240419358015060e-02
1.038051504292525351e-02
1.005862589227035642e-02
1.008313663769513369e-01
1.001875880756415427e-01
9.986569892498664558e-02
1.024408121302258223e-01
1.053378144861198962e-01
1.050159253354649991e-01
1.046940361848101020e-01
2.569476044445764273e-01
2.601664959511253983e-01
2.592008284991607070e-01
2.592008284991607070e-01
2.646729440602939576e-01
2.643510549096390605e-01
2.649948332109488547e-01
3.390293378615751863e-01
4.256175193877425045e-01
4.240080736344680190e-01
4.256175193877425045e-01
5.334503848571330309e-01
5.344160523090977222e-01
5.337722740077879280e-01
5.331284957064781338e-01
2.353810313506983221e-01
2.363466988026630133e-01
2.363466988026630133e-01
2.128487908048555255e-01
1.867757696018088609e-01
1.867757696018088609e-01
1.870976587524637580e-01
-2.851137252582702786e-01
-2.841480578063055873e-01
-2.835042795049957931e-01
-2.822167229023762047e-01
-1.946628739242441952e-01
-1.953066522255539894e-01
-1.946628739242441952e-01
9.632491826778277755e-02
3.860251538571901619e-01
3.857032647065352648e-01
3.850594864052254707e-01
2.826987364969681948e-01
2.830206256476230919e-01
2.826987364969681948e-01
2.820549581956584007e-01
1.661748639598954469e-01
1.655310856585856527e-01
1.655310856585856527e-01
1.690718663157895207e-01
1.722907578223384917e-01
1.713250903703738004e-01
1.722907578223384917e-01
1.957886658201459795e-01
1.951448875188361853e-01
1.964324441214557737e-01
1.951448875188361853e-01
1.751877601782325655e-01
1.751877601782325655e-01
1.739002035756129771e-01
1.066253710887394845e-01
4.900721312151290476e-02
4.932910227216780186e-02
4.997288057347759604e-02
4.385698671103455126e-02
4.353509756037965417e-02
4.417887586168944836e-02
4.160376265645027161e-02
-1.347914919024333358e-01
-1.347914919024333358e-01
-1.341477136011235416e-01
-1.373666051076725125e-01
-1.399417183129116893e-01
-1.399417183129116893e-01
-1.399417183129116893e-01
-2.773883856425527483e-01
-2.770664964918978512e-01
-2.773883856425527483e-01
-2.773883856425527483e-01
-2.799634988477919251e-01
-2.809291662997566164e-01
-2.802853879984468222e-01
-3.317876521032303572e-01
-3.681611261272337288e-01
-3.665516803739592433e-01
-3.681611261272337288e-01
-3.739551308390218765e-01
-3.736332416883669794e-01
-3.745989091403316706e-01
-3.771740223455708474e-01
-4.264230623957701027e-01
-4.264230623957701027e-01
-4.267449515464249998e-01
-4.273887298477347940e-01
-4.267449515464249998e-01
-4.273887298477347940e-01
-4.273887298477347940e-01
-4.492771920922677964e-01
-4.476677463389933109e-01
-4.483115246403031051e-01
-4.467020788870286196e-01
-4.415518524765502661e-01
-4.412299633258953691e-01
-4.415518524765502661e-01
-4.441269656817894429e-01
-4.470239680376835167e-01
-4.463801897363737226e-01
-4.476677463389933109e-01
-4.467020788870286196e-01
-4.460583005857188255e-01
-4.460583005857188255e-01
-4.438050765311345458e-01
-4.251355057931505144e-01
-4.248136166424956173e-01
-4.248136166424956173e-01
-4.293200647516641766e-01
-4.312513996555935591e-01
-4.312513996555935591e-01
-4.299638430529739708e-01
-4.074316025071311742e-01
-4.071097133564762771e-01
-4.080753808084409684e-01
-4.067878242058213800e-01
-4.100067157123703510e-01
-4.090410482604056597e-01
-4.100067157123703510e-01
-3.874744751665275544e-01
-3.771740223455708474e-01
-3.774959114962257445e-01
-3.784615789481904358e-01
-3.710581284831278026e-01
-3.710581284831278026e-01
-3.710581284831278026e-01
-3.688049044285435230e-01
-3.482039987866301090e-01
-3.482039987866301090e-01
-3.488477770879399031e-01
-3.488477770879399031e-01
-3.482039987866301090e-01
-3.488477770879399031e-01
-3.494915553892496973e-01
-3.144056379678659141e-01
-3.140837488172110170e-01
-3.153713054198306054e-01
-3.131180813652463257e-01
-3.089335224067326635e-01
-3.086116332560777664e-01
-3.086116332560777664e-01
-2.905858408194035292e-01
-2.847918361076153815e-01
-2.844699469569604844e-01
-2.854356144089251757e-01
-2.841480578063055873e-01
-2.847918361076153815e-01
-2.838261686556506902e-01
-2.799634988477919251e-01
-2.609720389591529965e-01
-2.616158172604627907e-01
-2.612939281098078936e-01
-2.616158172604627907e-01
-2.619377064111176878e-01
-2.629033738630823791e-01
-2.625814847124274820e-01
-2.484183620836120099e-01
-2.477745837823022157e-01
-2.484183620836120099e-01
-2.487402512342669070e-01
-2.509934752888511866e-01
-2.522810318914707750e-01
-2.513153644395060837e-01
-2.410149116185493767e-01
-2.377960201120004058e-01
-2.374741309613455087e-01
-2.384397984133102000e-01
-2.381179092626553029e-01
-2.387616875639650971e-01
-2.381179092626553029e-01
-2.345771286054514349e-01
-2.239547866338398308e-01
-2.239547866338398308e-01
-2.242766757844947278e-01
-2.358646852080710232e-01
-2.387616875639650971e-01
-2.384397984133102000e-01
-2.390835767146199942e-01
-2.303925696469377726e-01
-2.300706804962828755e-01
-2.300706804962828755e-01
-2.303925696469377726e-01
-2.297487913456279784e-01
-2.291050130443181843e-01
-2.300706804962828755e-01
-2.171951144700869918e-01
-2.155856687168125063e-01
-2.152637795661576092e-01
-2.146200012648478150e-01
-2.146200012648478150e-01
-2.149418904155027121e-01
-2.142981121141929179e-01
-2.075384399504400790e-01
-1.904783149657305330e-01
-1.904783149657305330e-01
-1.908002041163854301e-01
-1.908002041163854301e-01
-1.904783149657305330e-01
-1.908002041163854301e-01
-1.901564258150756359e-01
-1.637615154613740742e-01
-1.631177371600642800e-01
-1.637615154613740742e-01
-1.627958480094093829e-01
-1.627958480094093829e-01
-1.627958480094093829e-01
-1.627958480094093829e-01
-1.376884942583274096e-01
-1.338258244504686445e-01
-1.335039352998137474e-01
-1.335039352998137474e-01
-1.335039352998137474e-01
-1.344696027517784387e-01
-1.338258244504686445e-01
-1.331820461491588503e-01
-1.309288220945745707e-01
-1.318944895465392619e-01
-1.315726003958843648e-01
-1.270661522867158055e-01
-1.257785956840962172e-01
-1.254567065334413201e-01
-1.254567065334413201e-01
-1.347914919024333358e-01
-1.344696027517784387e-01
-1.347914919024333358e-01
-1.331820461491588503e-01
-1.312507112452294677e-01
-1.315726003958843648e-01
-1.315726003958843648e-01
-1.335039352998137474e-01
-1.347914919024333358e-01
-1.338258244504686445e-01
-1.344696027517784387e-01
-1.402636074635665864e-01
-1.402636074635665864e-01
-1.402636074635665864e-01
-1.354352702037431300e-01
-1.261004848347511142e-01
-1.267442631360609084e-01
-1.251348173827864230e-01
-1.322163786971941590e-01
-1.325382678478490561e-01
-1.331820461491588503e-01
-1.325382678478490561e-01
-1.206283692736178637e-01
-1.209502584242727607e-01
-1.209502584242727607e-01
-1.261004848347511142e-01
-1.338258244504686445e-01
-1.335039352998137474e-01
-1.335039352998137474e-01
-1.228815933282021433e-01
-1.222378150268923491e-01
-1.225597041775472462e-01
-1.219159258762374520e-01
-1.277099305880255997e-01
-1.280318197386804968e-01
-1.283537088893353939e-01
-1.325382678478490561e-01
-1.367228268063627183e-01
-1.370447159570176154e-01
-1.380103834089823067e-01
-1.347914919024333358e-01
-1.344696027517784387e-01
-1.351133810530882329e-01
-1.335039352998137474e-01
-1.428387206688057631e-01
-1.418730532168410718e-01
-1.425168315181508660e-01
-1.421949423674959689e-01
-1.425168315181508660e-01
-1.428387206688057631e-01
-1.428387206688057631e-01
-1.502421711338683963e-01
-1.512078385858330876e-01
-1.502421711338683963e-01
-1.499202819832134992e-01
-1.557142866950016469e-01
-1.563580649963114411e-01
-1.563580649963114411e-01
-1.531391734897624701e-01
-1.495983928325586021e-01
-1.495983928325586021e-01
-1.486327253805939108e-01
-1.605426239548251033e-01
-1.602207348041702062e-01
-1.608645131054800004e-01
-1.602207348041702062e-01
-1.486327253805939108e-01
-1.483108362299390137e-01
-1.486327253805939108e-01
-1.483108362299390137e-01
-1.483108362299390137e-01
-1.479889470792841166e-01
-1.486327253805939108e-01
-1.602207348041702062e-01
-1.605426239548251033e-01
-1.602207348041702062e-01
-1.602207348041702062e-01
-1.608645131054800004e-01
-1.602207348041702062e-01
-1.592550673522055149e-01
-1.621520697080995888e-01
-1.627958480094093829e-01
-1.631177371600642800e-01
-1.637615154613740742e-01
-1.615082914067897946e-01
-1.611864022561348975e-01
-1.608645131054800004e-01
-1.598988456535153091e-01
-1.637615154613740742e-01
-1.640834046120289713e-01
-1.640834046120289713e-01
-1.637615154613740742e-01
-1.634396263107191771e-01
-1.634396263107191771e-01
-1.634396263107191771e-01
-1.695555201731622219e-01
-1.695555201731622219e-01
-1.695555201731622219e-01
-1.695555201731622219e-01
-1.644052937626838684e-01
-1.637615154613740742e-01
-1.644052937626838684e-01
-1.595769565028604120e-01
-1.560361758456565440e-01
-1.557142866950016469e-01
-1.560361758456565440e-01
-1.563580649963114411e-01
-1.560361758456565440e-01
-1.560361758456565440e-01
-1.560361758456565440e-01
-1.364009376557078212e-01
-1.370447159570176154e-01
-1.357571593543980271e-01
-1.370447159570176154e-01
-1.367228268063627183e-01
-1.367228268063627183e-01
-1.370447159570176154e-01
-1.193408126709982753e-01
-1.196627018216531724e-01
-1.203064801229629666e-01
-1.193408126709982753e-01
-1.190189235203433782e-01
-1.203064801229629666e-01
-1.196627018216531724e-01
-1.112935839046258479e-01
-1.048558008915279061e-01
-1.048558008915279061e-01
-1.051776900421828032e-01
-1.045339117408730090e-01
-1.042120225902181119e-01
-1.051776900421828032e-01
-1.019587985356338322e-01
-8.361111694830469787e-02
-8.328922779764980078e-02
-8.328922779764980078e-02
-8.361111694830469787e-02
-8.328922779764980078e-02
-8.328922779764980078e-02
-8.264544949634000659e-02
-7.363255327800288796e-02
-7.298877497669309378e-02
-7.363255327800288796e-02
-7.298877497669309378e-02
-7.298877497669309378e-02
-7.331066412734799087e-02
-7.331066412734799087e-02
-5.946943064918741584e-02
-5.238786933477967978e-02
-5.174409103346988559e-02
-5.174409103346988559e-02
-5.785998489591293037e-02
-5.785998489591293037e-02
-5.818187404656782746e-02
-5.399731508805416524e-02
-2.277406747452914715e-02
-2.341784577583894134e-02
-2.341784577583894134e-02
-2.309595662518404424e-02
-2.341784577583894134e-02
-2.341784577583894134e-02
-2.373973492649383843e-02
6.517845235066488385e-03
5.874066933756694198e-03
6.839734385721385479e-03
4.908399481792002916e-03
-2.418269286863505840e-04
4.019513726234436035e-04
-5.637160793412476778e-04
1.874963295995257795e-02
2.744064002763479948e-02
2.615308342501521111e-02
2.647497257567010820e-02
2.615308342501521111e-02
2.647497257567010820e-02
2.679686172632500529e-02
2.357797021977603436e-02
1.456507400143891573e-02
1.488696315209381282e-02
1.456507400143891573e-02
1.971530041191726923e-02
1.939341126126237214e-02
2.035907871322706342e-02
1.939341126126237214e-02
-8.856052299961447716e-04
-2.418269286863505840e-04
-8.856052299961447716e-04
-5.637160793412476778e-04
-1.529383531305938959e-03
-1.207494380651041865e-03
-5.637160793412476778e-04
-2.631484813173301518e-02
-3.468396604876033962e-02
-3.468396604876033962e-02
-3.468396604876033962e-02
-3.436207689810544252e-02
-3.404018774745054543e-02
-3.500585519941523671e-02
-4.112174906185828149e-02
-6.011320895049721003e-02
-6.011320895049721003e-02
-5.979131979984231293e-02
-6.107887640246190131e-02
-6.011320895049721003e-02
-6.075698725180700421e-02
-6.107887640246190131e-02
-6.976988347014412284e-02
-6.976988347014412284e-02
-6.976988347014412284e-02
-6.816043771686963737e-02
-6.075698725180700421e-02
-5.979131979984231293e-02
-5.914754149853251874e-02
-5.464109338936395943e-02
-5.431920423870906234e-02
-5.431920423870906234e-02
-5.431920423870906234e-02
-5.946943064918741584e-02
-5.914754149853251874e-02
-5.914754149853251874e-02
-6.848232686752453446e-02
-9.745235042646527290e-02
-9.680857212515547872e-02
-9.616479382384568453e-02
-1.013150202343240380e-01
-1.019587985356338322e-01
-1.019587985356338322e-01
-1.022806876862887293e-01
-1.840405319526325911e-01
-1.837186428019776940e-01
-1.837186428019776940e-01
-1.830748645006678998e-01
-1.830748645006678998e-01
-1.824310861993581057e-01
-1.824310861993581057e-01
-2.268517889897339046e-01
-2.358646852080710232e-01
-2.348990177561063319e-01
-2.345771286054514349e-01
-2.316801262495573610e-01
-2.320020154002122581e-01
-2.326457937015220523e-01
-2.332895720028318465e-01
-2.342552394547965378e-01
-2.352209069067612290e-01
-2.355427960574161261e-01
-2.348990177561063319e-01
-2.348990177561063319e-01
-2.339333503041416407e-01
-2.348990177561063319e-01
-2.258861215377692133e-01
-2.262080106884241104e-01
-2.262080106884241104e-01
-2.294269021949730814e-01
-2.342552394547965378e-01
-2.342552394547965378e-01
-2.342552394547965378e-01
-2.223453408805653453e-01
-2.200921168259810656e-01
-2.197702276753261685e-01
-2.210577842779457569e-01
-2.320020154002122581e-01
-2.316801262495573610e-01
-2.320020154002122581e-01
-2.245985649351496249e-01
-2.123667772102635354e-01
-2.123667772102635354e-01
-2.123667772102635354e-01
-2.175170036207418889e-01
-2.191264493740163743e-01
-2.184826710727065802e-01
-2.184826710727065802e-01
-2.036757701425813138e-01
-2.046414375945460051e-01
-2.046414375945460051e-01
-2.046414375945460051e-01
-2.072165507997851819e-01
-2.075384399504400790e-01
-2.078603291010949761e-01
-1.666585178172681481e-01
-1.644052937626838684e-01
-1.637615154613740742e-01
-1.647271829133387655e-01
-1.644052937626838684e-01
-1.650490720639936626e-01
-1.653709612146485597e-01
-1.508859494351781905e-01
-1.273880414373707026e-01
-1.277099305880255997e-01
-1.267442631360609084e-01
-1.219159258762374520e-01
-1.212721475749276578e-01
-1.215940367255825549e-01
-1.215940367255825549e-01
-7.588577733258716762e-02
-7.620766648324206471e-02
-7.620766648324206471e-02
-7.652955563389696181e-02
-7.620766648324206471e-02
-7.588577733258716762e-02
-7.588577733258716762e-02
-9.648668297450058162e-02
-9.680857212515547872e-02
-9.713046127581037581e-02
-9.680857212515547872e-02
-8.103600374306552112e-02
-8.135789289372041821e-02
-8.135789289372041821e-02
-1.038901334395632148e-01
-1.318944895465392619e-01
-1.309288220945745707e-01
-1.322163786971941590e-01
-1.338258244504686445e-01
-1.344696027517784387e-01
-1.335039352998137474e-01
-1.341477136011235416e-01
-3.356503219110891223e-01
-3.346846544591244310e-01
-3.340408761578146368e-01
-3.350065436097793281e-01
-3.346846544591244310e-01
-3.346846544591244310e-01
-3.340408761578146368e-01
-2.921185048762708902e-02
-2.921185048762708902e-02
-3.082129624090157449e-02
-3.082129624090157449e-02
-2.760240473435260355e-02
-2.792429388500750065e-02
-2.760240473435260355e-02
-1.875813126098364592e-01
-3.494915553892496973e-01
-3.488477770879399031e-01
-3.494915553892496973e-01
-2.783540530945174396e-01
-2.773883856425527483e-01
-2.780321639438625425e-01
-2.786759422451723367e-01
-8.554245185223408043e-02
-8.586434100288897753e-02
-8.522056270157918334e-02
-8.264544949634000659e-02
-8.103600374306552112e-02
-7.974844714044593275e-02
-8.007033629110082984e-02
-1.569250616012141109e-02
-1.537061700946651399e-02
-1.537061700946651399e-02
-1.504872785881161690e-02
-1.601439531077630818e-02
-1.698006276274099946e-02
-1.730195191339589655e-02
-4.748275037854909897e-03
6.839734385721385479e-03
5.552177783101797104e-03
6.517845235066488385e-03
1.198996079619973898e-02
1.198996079619973898e-02
1.102429334423504770e-02
1.166807164554484189e-02
2.389985937043093145e-02
2.550930512370541692e-02
2.454363767174072564e-02
2.229041361715644598e-02
1.907152211060747504e-02
1.939341126126237214e-02
1.810585465864278376e-02
-1.601439531077630818e-02
-1.665817361208610237e-02
-1.665817361208610237e-02
-1.730195191339589655e-02
-2.084273257059976459e-02
-1.923328681732527912e-02
-1.955517596798017621e-02
-4.401875141775235534e-02
-5.979131979984231293e-02
-6.043509810115210712e-02
-5.946943064918741584e-02
-6.236643300508148968e-02
-6.236643300508148968e-02
-6.301021130639128387e-02
-6.365398960770107806e-02
-9.745235042646527290e-02
-9.777423957712017000e-02
-9.616479382384568453e-02
-9.745235042646527290e-02
-9.713046127581037581e-02
-9.648668297450058162e-02
-9.552101552253589034e-02
-1.261004848347511142e-01
-1.251348173827864230e-01
-1.251348173827864230e-01
-1.238472607801668346e-01
-1.193408126709982753e-01
-1.186970343696884811e-01
-1.186970343696884811e-01
-1.257785956840962172e-01
-1.306069329439196736e-01
-1.293193763413000852e-01
-1.296412654919549823e-01
-1.293193763413000852e-01
-1.293193763413000852e-01
-1.293193763413000852e-01
-1.289974871906451881e-01
-1.183751452190335840e-01
-1.174094777670688927e-01
-1.177313669177237898e-01
-1.177313669177237898e-01
-1.177313669177237898e-01
-1.174094777670688927e-01
-1.180532560683786869e-01
-1.032463551382534206e-01
-1.032463551382534206e-01
-1.026025768369436264e-01
-1.029244659875985235e-01
-1.087184706993866712e-01
-1.093622490006964654e-01
-1.087184706993866712e-01
-1.257785956840962172e-01
-1.325382678478490561e-01
-1.318944895465392619e-01
-1.325382678478490561e-01
-1.335039352998137474e-01
-1.325382678478490561e-01
-1.322163786971941590e-01
-1.373666051076725125e-01
-1.676241852692328393e-01
-1.673022961185779423e-01
-1.676241852692328393e-01
-1.673022961185779423e-01
-1.679460744198877364e-01
-1.666585178172681481e-01
-1.676241852692328393e-01
-2.255642323871143162e-01
-2.265298998390790075e-01
-2.255642323871143162e-01
-2.262080106884241104e-01
-2.258861215377692133e-01
-2.265298998390790075e-01
-2.265298998390790075e-01
-2.545342559460550547e-01
-2.641909304657019675e-01
-2.658003762189764529e-01
-2.658003762189764529e-01
-2.654784870683215559e-01
-2.648347087670117617e-01
-2.664441545202862471e-01
-2.638690413150470704e-01
-2.571093691512942314e-01
-2.564655908499844372e-01
-2.571093691512942314e-01
-2.571093691512942314e-01
-2.574312583019491285e-01
-2.574312583019491285e-01
-2.571093691512942314e-01
-2.217015625792555511e-01
-2.233110083325300366e-01
-2.223453408805653453e-01
-2.220234517299104482e-01
-2.194483385246712714e-01
-2.197702276753261685e-01
-2.204140059766359627e-01
-1.879032017604913563e-01
-1.779246380901895463e-01
-1.785684163914993405e-01
-1.788903055421542376e-01
-1.779246380901895463e-01
-1.779246380901895463e-01
-1.776027489395346493e-01
-1.673022961185779423e-01
-1.338258244504686445e-01
-1.331820461491588503e-01
-1.325382678478490561e-01
-1.312507112452294677e-01
-1.302850437932647765e-01
-1.306069329439196736e-01
-1.296412654919549823e-01
-7.974844714044593275e-02
-7.974844714044593275e-02
-7.974844714044593275e-02
-7.878277968848124146e-02
-7.974844714044593275e-02
-7.910466883913613856e-02
-7.974844714044593275e-02
-3.822474670596420765e-02
-2.985562878893688321e-02
-3.082129624090157449e-02
-3.049940709024667740e-02
-2.953373963828198612e-02
-2.953373963828198612e-02
-3.049940709024667740e-02
-2.856807218631729484e-02
-2.148651087190955877e-02
-2.148651087190955877e-02
-2.180840002256445587e-02
-2.856807218631729484e-02
-2.985562878893688321e-02
-3.082129624090157449e-02
-3.082129624090157449e-02
-4.498441886971704662e-02
-4.466252971906214952e-02
-4.530630802037194371e-02
-4.530630802037194371e-02
-4.466252971906214952e-02
-4.562819717102684081e-02
-4.530630802037194371e-02
-6.783854856621474028e-02
-7.105744007276371121e-02
-7.137932922341860831e-02
-7.105744007276371121e-02
-7.170121837407350540e-02
-7.202310752472840250e-02
-7.105744007276371121e-02
-7.781711223651655018e-02
-8.908323250943794847e-02
-8.940512166009284556e-02
-8.972701081074774265e-02
-9.004889996140263975e-02
-8.972701081074774265e-02
-9.004889996140263975e-02
-8.940512166009284556e-02
-1.019587985356338322e-01
-1.016369093849789351e-01
-1.019587985356338322e-01
-1.013150202343240380e-01
-1.022806876862887293e-01
-1.026025768369436264e-01
-1.032463551382534206e-01
-1.106498056033160537e-01
-1.116154730552807450e-01
-1.109716947539709508e-01
-1.122592513565905392e-01
-1.067871357954572886e-01
-1.064652466448023915e-01
-1.064652466448023915e-01
-1.103279164526611567e-01
-1.180532560683786869e-01
-1.177313669177237898e-01
-1.177313669177237898e-01
-1.180532560683786869e-01
-1.174094777670688927e-01
-1.177313669177237898e-01
-1.177313669177237898e-01
-1.112935839046258479e-01
-1.112935839046258479e-01
-1.103279164526611567e-01
-1.138686971098650247e-01
-1.174094777670688927e-01
-1.170875886164139956e-01
-1.167656994657590985e-01
-9.198023486533202231e-02
-9.004889996140263975e-02
-8.972701081074774265e-02
-8.908323250943794847e-02
-9.584290467319078743e-02
-9.552101552253589034e-02
-9.584290467319078743e-02
-8.908323250943794847e-02
-8.071411459241062403e-02
-8.007033629110082984e-02
-7.974844714044593275e-02
-8.039222544175572693e-02
-8.007033629110082984e-02
-7.974844714044593275e-02
-7.974844714044593275e-02
-6.461965705966576934e-02
-6.461965705966576934e-02
-6.397587875835597515e-02
-6.461965705966576934e-02
-6.429776790901087224e-02
-6.494154621032066643e-02
-6.429776790901087224e-02
-5.818187404656782746e-02
-5.818187404656782746e-02
-5.753809574525803328e-02
-5.850376319722272456e-02
-5.625053914263844490e-02
-5.625053914263844490e-02
-5.689431744394823909e-02
-5.077842358150519431e-02
-4.434064056840725243e-02
-4.498441886971704662e-02
-4.498441886971704662e-02
-4.981275612954050303e-02
-4.981275612954050303e-02
-5.045653443085029721e-02
-5.045653443085029721e-02
-4.498441886971704662e-02
-4.434064056840725243e-02
-4.434064056840725243e-02
-5.045653443085029721e-02
-5.625053914263844490e-02
-5.625053914263844490e-02
-5.657242829329334199e-02
-4.047797076054848731e-02
-4.112174906185828149e-02
-4.112174906185828149e-02
-4.208741651382297277e-02
-4.401875141775235534e-02
-4.434064056840725243e-02
-4.466252971906214952e-02
-3.758096840465441346e-02
-3.017751793959178030e-02
-3.017751793959178030e-02
-3.082129624090157449e-02
-3.049940709024667740e-02
-3.049940709024667740e-02
-3.082129624090157449e-02
-3.210885284352116287e-02
-1.730195191339589655e-02
-1.698006276274099946e-02
-1.698006276274099946e-02
-1.794573021470569074e-02
-1.730195191339589655e-02
-1.794573021470569074e-02
-1.794573021470569074e-02
-9.898501448333263397e-03
-8.289055695058777928e-03
-9.576612297678366303e-03
-9.254723147023469210e-03
-1.504872785881161690e-02
-1.537061700946651399e-02
-1.537061700946651399e-02
-2.341784577583894134e-02
-2.985562878893688321e-02
-2.921185048762708902e-02
-2.985562878893688321e-02
-2.373973492649383843e-02
-2.341784577583894134e-02
-2.309595662518404424e-02
-2.470540237845852971e-02
-4.595008632168173790e-02
-4.659386462299153209e-02
-4.530630802037194371e-02
-4.562819717102684081e-02
-4.498441886971704662e-02
-4.627197547233663499e-02
-4.530630802037194371e-02
-8.071411459241062403e-02
-8.007033629110082984e-02
-7.942655798979103565e-02
-7.942655798979103565e-02
-7.974844714044593275e-02
-7.974844714044593275e-02
-7.974844714044593275e-02
-1.026025768369436264e-01
-1.174094777670688927e-01
-1.177313669177237898e-01
-1.170875886164139956e-01
-1.183751452190335840e-01
-1.177313669177237898e-01
-1.180532560683786869e-01
-1.196627018216531724e-01
-1.473451687779743224e-01
-1.467013904766645283e-01
-1.463795013260096312e-01
-1.463795013260096312e-01
-1.470232796273194253e-01
-1.467013904766645283e-01
-1.460576121753547341e-01
-1.666585178172681481e-01
-1.669804069679230452e-01
-1.669804069679230452e-01
-1.673022961185779423e-01
-1.605426239548251033e-01
-1.608645131054800004e-01
-1.608645131054800004e-01
-1.557142866950016469e-01
-1.518516168871428818e-01
-1.521735060377977788e-01
-1.512078385858330876e-01
-1.608645131054800004e-01
-1.611864022561348975e-01
-1.605426239548251033e-01
-1.589331782015506178e-01
-1.457357230246998370e-01
-1.447700555727351457e-01
-1.457357230246998370e-01
-1.508859494351781905e-01
-1.518516168871428818e-01
-1.528172843391075730e-01
-1.518516168871428818e-01
-1.441262772714253515e-01
-1.434824989701155573e-01
-1.441262772714253515e-01
-1.454138338740449399e-01
-1.586112890508957207e-01
-1.579675107495859265e-01
-1.592550673522055149e-01
-1.547486192430369556e-01
-1.534610626404173672e-01
-1.534610626404173672e-01
-1.531391734897624701e-01
-1.595769565028604120e-01
-1.592550673522055149e-01
-1.595769565028604120e-01
-1.602207348041702062e-01
-1.631177371600642800e-01
-1.637615154613740742e-01
-1.634396263107191771e-01
-1.640834046120289713e-01
-1.634396263107191771e-01
-1.631177371600642800e-01
-1.621520697080995888e-01
-1.689117418718524277e-01
-1.689117418718524277e-01
-1.698774093238171190e-01
-1.695555201731622219e-01
-1.695555201731622219e-01
-1.698774093238171190e-01
-1.695555201731622219e-01
-1.653709612146485597e-01
-1.627958480094093829e-01
-1.624739588587544858e-01
-1.627958480094093829e-01
-1.631177371600642800e-01
-1.624739588587544858e-01
-1.631177371600642800e-01
-1.615082914067897946e-01
-1.528172843391075730e-01
-1.537829517910722643e-01
-1.534610626404173672e-01
-1.537829517910722643e-01
-1.541048409417271614e-01
-1.531391734897624701e-01
-1.528172843391075730e-01
-1.595769565028604120e-01
-1.589331782015506178e-01
-1.589331782015506178e-01
-1.586112890508957207e-01
-1.595769565028604120e-01
-1.582893999002408236e-01
-1.582893999002408236e-01
-1.486327253805939108e-01
-1.460576121753547341e-01
-1.463795013260096312e-01
-1.467013904766645283e-01
-1.515297277364879847e-01
-1.521735060377977788e-01
-1.521735060377977788e-01
-1.560361758456565440e-01
-1.663366286666132510e-01
-1.676241852692328393e-01
-1.673022961185779423e-01
-1.615082914067897946e-01
-1.602207348041702062e-01
-1.605426239548251033e-01
-1.602207348041702062e-01
-1.724525225290562958e-01
-1.721306333784013987e-01
-1.727744116797111928e-01
-1.737400791316758841e-01
-1.747057465836405754e-01
-1.750276357342954725e-01
-1.747057465836405754e-01
-2.165513361687771976e-01
-2.242766757844947278e-01
-2.255642323871143162e-01
-2.236328974831849337e-01
-2.245985649351496249e-01
-2.239547866338398308e-01
-2.239547866338398308e-01
-2.303925696469377726e-01
-2.455213597277179360e-01
-2.445556922757532448e-01
-2.442338031250983477e-01
-2.442338031250983477e-01
-2.455213597277179360e-01
-2.451994705770630389e-01
-2.461651380290277302e-01
-2.397273550159297884e-01
-2.403711333172395825e-01
-2.394054658652748913e-01
-2.381179092626553029e-01
-2.342552394547965378e-01
-2.348990177561063319e-01
-2.345771286054514349e-01
-2.271736781403888017e-01
-2.265298998390790075e-01
-2.265298998390790075e-01
-2.268517889897339046e-01
-2.274955672910436988e-01
-2.268517889897339046e-01
-2.265298998390790075e-01
-2.191264493740163743e-01
-2.046414375945460051e-01
-2.039976592932362109e-01
-2.046414375945460051e-01
-2.036757701425813138e-01
-2.049633267452009022e-01
-2.039976592932362109e-01
-2.043195484438911080e-01
-1.888688692124560475e-01
-1.895126475137658417e-01
-1.891907583631109446e-01
-1.891907583631109446e-01
-1.882250909111462533e-01
-1.879032017604913563e-01
-1.882250909111462533e-01
-1.772808597888797522e-01
-1.769589706382248551e-01
-1.769589706382248551e-01
-1.766370814875699580e-01
-1.730963008303660899e-01
-1.737400791316758841e-01
-1.737400791316758841e-01
-1.573237324482761323e-01
-1.322163786971941590e-01
-1.315726003958843648e-01
-1.315726003958843648e-01
-1.318944895465392619e-01
-1.318944895465392619e-01
-1.312507112452294677e-01
-1.318944895465392619e-01
-1.141905862605199218e-01
-1.138686971098650247e-01
-1.141905862605199218e-01
-1.148343645618297160e-01
-1.174094777670688927e-01
-1.161219211644493043e-01
-1.167656994657590985e-01
-1.418730532168410718e-01
-1.434824989701155573e-01
-1.425168315181508660e-01
-1.421949423674959689e-01
-1.428387206688057631e-01
-1.425168315181508660e-01
-1.421949423674959689e-01
-2.152637795661576092e-01
-3.063584092014934868e-01
-3.063584092014934868e-01
-3.050708525988738984e-01
-3.176245294744148850e-01
-3.169807511731050909e-01
-3.182683077757246792e-01
-3.182683077757246792e-01
-5.664448429306503385e-01
-5.658010646293405443e-01
-5.661229537799954414e-01
-5.690199561358895153e-01
-5.738482933957129717e-01
-5.741701825463678688e-01
-5.735264042450580746e-01
-4.805004397057928145e-01
-4.798566614044830203e-01
-4.801785505551379174e-01
-4.805004397057928145e-01
-4.644059821730479598e-01
-4.653716496250126511e-01
-4.656935387756675482e-01
-3.105429681600071490e-01
-1.492765036819037050e-01
-1.508859494351781905e-01
-1.508859494351781905e-01
-1.360790485050529242e-01
-1.376884942583274096e-01
-1.376884942583274096e-01
-1.383322725596372038e-01
9.632491826778277755e-02
9.600302911712788045e-02
9.568113996647298336e-02
9.825625317171216011e-02
1.001875880756415427e-01
1.001875880756415427e-01
9.954380977433174849e-02
1.223979394708294421e-01
1.227198286214843392e-01
1.230417177721392363e-01
1.236854960734490305e-01
9.342791591188870370e-02
9.407169421319849789e-02
9.246224845992401242e-02
4.063809520448558033e-02
-3.782607585890218616e-03
-3.460718435235321522e-03
-3.782607585890218616e-03
-3.460718435235321522e-03
-4.104496736545115709e-03
-2.173161832615733147e-03
-2.495050983270630240e-03
-5.238786933477967978e-02
-5.174409103346988559e-02
-5.077842358150519431e-02
-5.110031273216009140e-02
-5.110031273216009140e-02
-5.110031273216009140e-02
-5.045653443085029721e-02
-7.170121837407350540e-02
-7.137932922341860831e-02
-7.105744007276371121e-02
-7.137932922341860831e-02
-6.526343536097556353e-02
-6.429776790901087224e-02
-6.461965705966576934e-02
-6.912610516883432865e-02
-7.363255327800288796e-02
-7.331066412734799087e-02
-7.331066412734799087e-02
-7.910466883913613856e-02
-7.878277968848124146e-02
-7.846089053782634437e-02
-7.717333393520675600e-02
-5.528487169067375362e-02
-5.496298254001885653e-02
-5.496298254001885653e-02
-5.464109338936395943e-02
-5.496298254001885653e-02
-5.496298254001885653e-02
-5.464109338936395943e-02
-4.047797076054848731e-02
-4.176552736316807568e-02
-4.047797076054848731e-02
-4.112174906185828149e-02
-4.305308396578766406e-02
-4.305308396578766406e-02
-4.273119481513276696e-02
-3.468396604876033962e-02
-2.953373963828198612e-02
-3.017751793959178030e-02
-2.888996133697219193e-02
-2.856807218631729484e-02
-2.888996133697219193e-02
-2.888996133697219193e-02
-2.309595662518404424e-02
2.389985937043093145e-02
2.389985937043093145e-02
2.325608106912113726e-02
5.126043717609718442e-02
6.735489470884203911e-02
6.671111640753224492e-02
6.735489470884203911e-02
1.456507400143891573e-02
1.520885230274870992e-02
1.488696315209381282e-02
-2.495050983270630240e-03
-1.325382678478490561e-01
-1.318944895465392619e-01
-1.328601569985039532e-01
1.664967531105503440e-01
3.097374251519795507e-01
3.090936468506697565e-01
3.087717577000148594e-01
6.296952409029472619e-01
6.284076843003276736e-01
6.284076843003276736e-01
5.076992528047412634e-01
-2.146200012648478150e-01
-2.149418904155027121e-01
-2.146200012648478150e-01
2.833425147982779890e-01
4.977206891344394535e-01
4.961112433811649680e-01
4.964331325318198651e-01
-7.141919630812481046e-01
-7.116168498760089278e-01
-7.103292932733893394e-01
-7.193421894917264581e-01
-7.599002224742434919e-01
-7.586126658716239035e-01
-7.582907767209690064e-01
-8.744927601073868573e-01
-9.189134628977626562e-01
-9.185915737471077591e-01
-9.176259062951430678e-01
-9.111881232820451260e-01
-9.108662341313902289e-01
-9.115100124327000231e-01
-8.291063898650463670e-01
-4.769596590485889465e-01
-4.776034373498987406e-01
-4.769596590485889465e-01
-4.692343194328714162e-01
-4.660154279263224453e-01
-4.656935387756675482e-01
-4.647278713237028569e-01
-3.240623124875128269e-01
-3.253498690901324153e-01
-3.250279799394775182e-01
-3.237404233368579298e-01
-3.201996426796540618e-01
-3.189120860770344734e-01
-3.192339752276893705e-01
-2.851137252582702786e-01
-2.748132724373135716e-01
-2.751351615879684687e-01
-2.751351615879684687e-01
-2.751351615879684687e-01
-2.754570507386233658e-01
-2.751351615879684687e-01
-2.677317111229058355e-01
-2.464870271796826273e-01
-2.455213597277179360e-01
-2.458432488783728331e-01
-2.468089163303375244e-01
-2.474526946316473186e-01
-2.468089163303375244e-01
-2.468089163303375244e-01
-2.664441545202862471e-01
-2.677317111229058355e-01
-2.670879328215960413e-01
-2.674098219722509384e-01
-2.667660436709411442e-01
-2.674098219722509384e-01
-2.661222653696313500e-01
-2.548561450967099518e-01
-2.522810318914707750e-01
-2.529248101927805692e-01
-2.522810318914707750e-01
-2.670879328215960413e-01
-2.674098219722509384e-01
-2.670879328215960413e-01
-2.696630460268352181e-01
-2.725600483827292919e-01
-2.738476049853488803e-01
-2.735257158346939832e-01
-2.680536002735607326e-01
-2.674098219722509384e-01
-2.680536002735607326e-01
-2.683754894242156297e-01
-2.468089163303375244e-01
-2.477745837823022157e-01
-2.477745837823022157e-01
-2.484183620836120099e-01
-2.490621403849218041e-01
-2.487402512342669070e-01
-2.487402512342669070e-01
-2.245985649351496249e-01
-2.210577842779457569e-01
-2.197702276753261685e-01
-2.213796734286006540e-01
-2.274955672910436988e-01
-2.271736781403888017e-01
-2.265298998390790075e-01
-2.210577842779457569e-01
-2.068946616491302848e-01
-2.062508833478204906e-01
-2.075384399504400790e-01
-2.072165507997851819e-01
-2.065727724984753877e-01
-2.065727724984753877e-01
-2.078603291010949761e-01
-1.982036545814480633e-01
-1.991693220334127545e-01
-1.982036545814480633e-01
-1.978817654307931662e-01
-1.978817654307931662e-01
-1.985255437321029603e-01
-1.978817654307931662e-01
-1.898345366644207388e-01
-1.885469800618011504e-01
-1.888688692124560475e-01
-1.879032017604913563e-01
-1.914439824176952243e-01
-1.908002041163854301e-01
-1.908002041163854301e-01
-1.949847630748990923e-01
-2.023882135399617255e-01
-2.023882135399617255e-01
-2.017444352386519313e-01
-2.020663243893068284e-01
-2.020663243893068284e-01
-2.017444352386519313e-01
-2.020663243893068284e-01
-1.904783149657305330e-01
-1.904783149657305330e-01
-1.904783149657305330e-01
-1.895126475137658417e-01
-1.901564258150756359e-01
-1.898345366644207388e-01
-1.901564258150756359e-01
-1.676241852692328393e-01
-1.673022961185779423e-01
-1.660147395159583539e-01
-1.669804069679230452e-01
-1.605426239548251033e-01
-1.611864022561348975e-01
-1.608645131054800004e-01
-1.544267300923820585e-01
-1.460576121753547341e-01
-1.457357230246998370e-01
-1.460576121753547341e-01
-1.431606098194606602e-01
-1.434824989701155573e-01
-1.428387206688057631e-01
-1.431606098194606602e-01
-1.148343645618297160e-01
-1.145124754111748189e-01
-1.138686971098650247e-01
-1.145124754111748189e-01
-1.135468079592101276e-01
-1.138686971098650247e-01
-1.135468079592101276e-01
-7.298877497669309378e-02
-7.170121837407350540e-02
-7.202310752472840250e-02
-7.298877497669309378e-02
-7.298877497669309378e-02
-7.234499667538329959e-02
-7.331066412734799087e-02
-6.622910281294025481e-02
-5.914754149853251874e-02
-5.850376319722272456e-02
-5.979131979984231293e-02
-5.914754149853251874e-02
-5.979131979984231293e-02
-5.946943064918741584e-02
-5.882565234787762165e-02
-1.000274636317044497e-01
-1.009931310836691409e-01
-1.013150202343240380e-01
